
                  X             Displacement          Force      

                0.                -0.                 0.         
                1.E-03           100.E-15             1.12305E-09
                2.E-03           200.E-15           705.781E-12  
                3.5E-03          350.E-15            70.4427E-12 
                5.75E-03         575.E-15             5.55354E-12
                9.125E-03        912.5E-15          545.344E-15  
               14.1875E-03         1.41875E-12       54.4662E-15 
               21.7812E-03         2.17813E-12        5.44649E-15
               33.1719E-03         3.31719E-12      544.604E-18  
               50.2578E-03         5.02578E-12       54.4593E-18 
               75.8867E-03         7.58867E-12        5.44559E-18
              114.33E-03          11.433E-12        544.533E-21  
              171.995E-03         17.1995E-12        54.4481E-21 
              258.493E-03         25.8493E-12         5.44419E-21
              388.239E-03         38.8239E-12       544.35E-24   
              582.859E-03         58.2859E-12        54.4247E-24 
              874.788E-03         87.4788E-12         5.44088E-24
                1.31268          131.268E-12        543.85E-27   
                1.96952          196.952E-12         54.3494E-27 
                2.76952          276.952E-12          5.43059E-27
                3.56952          356.952E-12        542.625E-30  
                4.36952          436.952E-12         54.219E-30  
                5.16952          516.952E-12          5.41756E-30
                5.96952          596.952E-12        541.322E-33  
                6.76952          676.952E-12         54.0888E-33 
                7.56952          756.952E-12          5.40453E-33
                8.36952          836.952E-12        540.019E-36  
                9.16952          916.952E-12         53.9585E-36 
                9.96952          996.952E-12        411.121E-09  
               10.7695             1.07695E-09        1.16265E-06
               11.5695             1.15695E-09        1.91364E-06
               12.3695             1.23695E-09        2.66367E-06
               13.1695             1.31695E-09        3.35598E-06
               13.9695             1.39695E-09        3.97111E-06
               14.7695             1.47695E-09        4.43616E-06
               15.5695             1.55695E-09        4.77771E-06
               16.3695             1.63695E-09        5.06798E-06
               17.1695             1.71695E-09        5.33275E-06
               17.9695             1.79695E-09        5.57266E-06
               18.7695             1.87695E-09        5.78727E-06
               19.5695             1.95695E-09        5.97809E-06
               20.3695             2.03695E-09        6.14942E-06
               21.1695             2.11695E-09        6.30327E-06
               21.9695             2.19695E-09        6.44396E-06
               22.7695             2.27695E-09        6.57498E-06
               23.5695             2.35695E-09        6.69803E-06
               24.3695             2.43695E-09        6.81519E-06
               25.1695             2.51695E-09        6.92726E-06
               25.9695             2.59695E-09        7.03419E-06
               26.7695             2.67695E-09        7.13692E-06
               27.5695             2.75695E-09        7.23568E-06
               28.3695             2.83695E-09        7.33049E-06
               29.1695             2.91695E-09        7.42189E-06
               29.9695             2.99695E-09        7.51032E-06
               30.7695             3.07695E-09        7.59585E-06
               31.5695             3.15695E-09        7.67813E-06
               32.3695             3.23695E-09        7.75728E-06
               33.1695             3.31695E-09        7.83341E-06
               33.9695             3.39695E-09        7.90658E-06
               34.7695             3.47695E-09        7.97651E-06
               35.5695             3.55695E-09        8.04338E-06
               36.3695             3.63695E-09        8.10727E-06
               37.1695             3.71695E-09        8.16815E-06
               37.9695             3.79695E-09        8.22597E-06
               38.7695             3.87695E-09        8.28075E-06
               39.5695             3.95695E-09        8.33264E-06
               40.3695             4.03695E-09        8.3819E-06 
               41.1695             4.11695E-09        8.42878E-06
               41.9695             4.19695E-09        8.47356E-06
               42.7695             4.27695E-09        8.51638E-06
               43.5695             4.35695E-09        8.55741E-06
               44.3695             4.43695E-09        8.59678E-06
               45.1695             4.51695E-09        8.63453E-06
               45.9695             4.59695E-09        8.67074E-06
               46.7695             4.67695E-09        8.70554E-06
               47.5695             4.75695E-09        8.73907E-06
               48.3695             4.83695E-09        8.77142E-06
               49.1695             4.91695E-09        8.80273E-06
               49.9695             4.99695E-09        8.83309E-06
               50.7695             5.07695E-09        8.86259E-06
               51.5695             5.15695E-09        8.89127E-06
               52.3695             5.23695E-09        8.91917E-06
               53.1695             5.31695E-09        8.9463E-06 
               53.9695             5.39695E-09        8.9727E-06 
               54.7695             5.47695E-09        8.9984E-06 
               55.5695             5.55695E-09        9.02347E-06
               56.3695             5.63695E-09        9.04796E-06
               57.1695             5.71695E-09        9.0719E-06 
               57.9695             5.79695E-09        9.09532E-06
               58.7695             5.87695E-09        9.11822E-06
               59.5695             5.95695E-09        9.14065E-06
               60.3695             6.03695E-09        9.48923E-06
               61.1695             6.11695E-09       10.3667E-06 
               61.9695             6.19695E-09       11.3369E-06 
               62.7695             6.27695E-09       12.467E-06  
               63.5695             6.35695E-09       13.931E-06  
               64.3695             6.43695E-09       15.3481E-06 
               65.1695             6.51695E-09       16.6884E-06 
               65.9695             6.59695E-09       17.9415E-06 
               66.7695             6.67695E-09       19.1034E-06 
               67.5695             6.75695E-09       20.1711E-06 
               68.3695             6.83695E-09       21.1377E-06 
               69.1695             6.91695E-09       22.0077E-06 
               69.9695             6.99695E-09       22.7934E-06 
               70.7695             7.07695E-09       23.4968E-06 
               71.5695             7.15695E-09       24.123E-06  
               72.3695             7.23695E-09       24.689E-06  
               73.1695             7.31695E-09       25.2061E-06 
               73.9695             7.39695E-09       25.6796E-06 
               74.7695             7.47695E-09       26.1132E-06 
               75.5695             7.55695E-09       26.5113E-06 
               76.3695             7.63695E-09       26.8789E-06 
               77.1695             7.71695E-09       27.2203E-06 
               77.9695             7.79695E-09       27.5387E-06 
               78.7695             7.87695E-09       27.8373E-06 
               79.5695             7.95695E-09       28.1182E-06 
               80.3695             8.03695E-09       28.3826E-06 
               81.1695             8.11695E-09       28.6316E-06 
               81.9695             8.19695E-09       28.8666E-06 
               82.7695             8.27695E-09       29.0892E-06 
               83.5695             8.35695E-09       29.3009E-06 
               84.3695             8.43695E-09       29.5026E-06 
               85.1695             8.51695E-09       29.6951E-06 
               85.9695             8.59695E-09       29.8789E-06 
               86.7695             8.67695E-09       30.0546E-06 
               87.5695             8.75695E-09       30.2227E-06 
               88.3695             8.83695E-09       30.384E-06  
               89.1695             8.91695E-09       30.5387E-06 
               89.9695             8.99695E-09       30.6873E-06 
               90.7695             9.07695E-09       30.8302E-06 
               91.5695             9.15695E-09       30.968E-06  
               92.3695             9.23695E-09       31.101E-06  
               93.1695             9.31695E-09       31.2296E-06 
               93.9695             9.39695E-09       31.3542E-06 
               94.7695             9.47695E-09       31.4751E-06 
               95.5695             9.55695E-09       31.5926E-06 
               96.3695             9.63695E-09       31.7067E-06 
               97.1695             9.71695E-09       31.8175E-06 
               97.9695             9.79695E-09       31.9254E-06 
               98.7695             9.87695E-09       32.0304E-06 
               99.5695             9.95695E-09       32.1326E-06 
              100.37              10.037E-09         32.2322E-06 
              101.17              10.117E-09         32.3293E-06 
              101.97              10.197E-09         32.4241E-06 
              102.77              10.277E-09         32.5166E-06 
              103.57              10.357E-09         32.6071E-06 
              104.37              10.437E-09         32.6955E-06 
              105.17              10.517E-09         32.782E-06  
              105.97              10.597E-09         32.8666E-06 
              106.77              10.677E-09         32.9494E-06 
              107.57              10.757E-09         33.0305E-06 
              108.37              10.837E-09         33.1101E-06 
              109.17              10.917E-09         33.1881E-06 
              109.97              10.997E-09         33.2646E-06 
              110.77              11.077E-09         33.3397E-06 
              111.57              11.157E-09         33.5002E-06 
              112.37              11.237E-09         33.7951E-06 
              113.17              11.317E-09         34.0761E-06 
              113.97              11.397E-09         34.5241E-06 
              114.77              11.477E-09         35.0874E-06 
              115.57              11.557E-09         35.6189E-06 
              116.37              11.637E-09         36.11E-06   
              117.17              11.717E-09         36.5481E-06 
              117.97              11.797E-09         37.055E-06  
              118.77              11.877E-09         37.7984E-06 
              119.57              11.957E-09         38.693E-06  
              120.37              12.037E-09         39.5355E-06 
              121.17              12.117E-09         40.3167E-06 
              121.97              12.197E-09         41.0403E-06 
              122.77              12.277E-09         41.7064E-06 
              123.57              12.357E-09         42.3181E-06 
              124.37              12.437E-09         42.8817E-06 
              125.17              12.517E-09         43.3945E-06 
              125.97              12.597E-09         43.8538E-06 
              126.77              12.677E-09         44.2685E-06 
              127.57              12.757E-09         44.6465E-06 
              128.37              12.837E-09         44.9919E-06 
              129.17              12.917E-09         45.3091E-06 
              129.97              12.997E-09         45.6015E-06 
              130.77              13.077E-09         45.8714E-06 
              131.57              13.157E-09         46.1217E-06 
              132.37              13.237E-09         46.3549E-06 
              133.17              13.317E-09         46.5733E-06 
              133.97              13.397E-09         46.7789E-06 
              134.77              13.477E-09         46.9731E-06 
              135.57              13.557E-09         47.157E-06  
              136.37              13.637E-09         47.3317E-06 
              137.17              13.717E-09         47.498E-06  
              137.97              13.797E-09         47.6572E-06 
              138.77              13.877E-09         47.8103E-06 
              139.57              13.957E-09         47.958E-06  
              140.37              14.037E-09         48.101E-06  
              141.17              14.117E-09         48.2398E-06 
              141.97              14.197E-09         48.3748E-06 
              142.77              14.277E-09         48.5064E-06 
              143.57              14.357E-09         48.6346E-06 
              144.37              14.437E-09         48.7598E-06 
              145.17              14.517E-09         48.882E-06  
              145.97              14.597E-09         49.0015E-06 
              146.77              14.677E-09         49.1184E-06 
              147.57              14.757E-09         49.2329E-06 
              148.37              14.837E-09         49.3448E-06 
              149.17              14.917E-09         49.4545E-06 
              149.97              14.997E-09         49.562E-06  
              150.77              15.077E-09         49.6675E-06 
              151.57              15.157E-09         49.7709E-06 
              152.37              15.237E-09         49.8725E-06 
              153.17              15.317E-09         49.9723E-06 
              153.97              15.397E-09         50.0704E-06 
              154.77              15.477E-09         50.167E-06  
              155.57              15.557E-09         50.2622E-06 
              156.37              15.637E-09         50.3562E-06 
              157.17              15.717E-09         50.4489E-06 
              157.97              15.797E-09         50.5402E-06 
              158.77              15.877E-09         50.6301E-06 
              159.57              15.957E-09         50.7188E-06 
              160.37              16.037E-09         50.8064E-06 
              161.17              16.117E-09         50.8929E-06 
              161.97              16.197E-09         50.9784E-06 
              162.77              16.277E-09         51.0628E-06 
              163.57              16.357E-09         51.1461E-06 
              164.37              16.437E-09         51.2284E-06 
              165.17              16.517E-09         51.3098E-06 
              165.97              16.597E-09         51.3904E-06 
              166.77              16.677E-09         51.4703E-06 
              167.57              16.757E-09         51.5495E-06 
              168.37              16.837E-09         51.628E-06  
              169.17              16.917E-09         51.7059E-06 
              169.97              16.997E-09         51.783E-06  
              170.77              17.077E-09         51.8595E-06 
              171.57              17.157E-09         51.9356E-06 
              172.37              17.237E-09         52.011E-06  
              173.17              17.317E-09         52.0859E-06 
              173.97              17.397E-09         52.1602E-06 
              174.77              17.477E-09         52.2341E-06 
              175.57              17.557E-09         52.3075E-06 
              176.37              17.637E-09         52.3805E-06 
              177.17              17.717E-09         52.453E-06  
              177.97              17.797E-09         52.525E-06  
              178.77              17.877E-09         52.5966E-06 
              179.57              17.957E-09         52.6678E-06 
              180.37              18.037E-09         52.7384E-06 
              181.17              18.117E-09         52.8084E-06 
              181.97              18.197E-09         52.8779E-06 
              182.77              18.277E-09         52.947E-06  
              183.57              18.357E-09         53.0156E-06 
              184.37              18.437E-09         53.0837E-06 
              185.17              18.517E-09         53.1515E-06 
              185.97              18.597E-09         53.2188E-06 
              186.77              18.677E-09         53.2858E-06 
              187.57              18.757E-09         53.3525E-06 
              188.37              18.837E-09         53.4188E-06 
              189.17              18.917E-09         53.4847E-06 
              189.97              18.997E-09         53.5503E-06 
              190.77              19.077E-09         53.6155E-06 
              191.57              19.157E-09         53.6804E-06 
              192.37              19.237E-09         53.7451E-06 
              193.17              19.317E-09         53.8095E-06 
              193.97              19.397E-09         53.8737E-06 
              194.77              19.477E-09         53.9376E-06 
              195.57              19.557E-09         54.0013E-06 
              196.37              19.637E-09         54.0647E-06 
              197.17              19.717E-09         54.1278E-06 
              197.97              19.797E-09         54.1907E-06 
              198.77              19.877E-09         54.2535E-06 
              199.57              19.957E-09         54.3161E-06 
              200.37              20.037E-09         54.3784E-06 
              201.17              20.117E-09         54.4408E-06 
              201.97              20.197E-09         54.5032E-06 
              202.77              20.277E-09         54.5654E-06 
              203.57              20.357E-09         54.6275E-06 
              204.37              20.437E-09         54.6894E-06 
              205.17              20.517E-09         54.7511E-06 
              205.97              20.597E-09         54.8125E-06 
              206.77              20.677E-09         54.8737E-06 
              207.57              20.757E-09         54.9347E-06 
              208.37              20.837E-09         54.9957E-06 
              209.17              20.917E-09         55.0565E-06 
              209.97              20.997E-09         55.1171E-06 
              210.77              21.077E-09         55.1778E-06 
              211.57              21.157E-09         55.2383E-06 
              212.37              21.237E-09         55.2987E-06 
              213.17              21.317E-09         55.3592E-06 
              213.97              21.397E-09         55.42E-06   
              214.77              21.477E-09         55.4808E-06 
              215.57              21.557E-09         55.5416E-06 
              216.37              21.637E-09         55.6025E-06 
              217.17              21.717E-09         55.6633E-06 
              217.97              21.797E-09         55.7241E-06 
              218.77              21.877E-09         55.9399E-06 
              219.57              21.957E-09         56.3981E-06 
              220.37              22.037E-09         56.8539E-06 
              221.17              22.117E-09         57.2825E-06 
              221.97              22.197E-09         57.6893E-06 
              222.77              22.277E-09         58.0737E-06 
              223.57              22.357E-09         58.4322E-06 
              224.37              22.437E-09         58.7607E-06 
              225.17              22.517E-09         59.0538E-06 
              225.97              22.597E-09         59.3094E-06 
              226.77              22.677E-09         59.535E-06  
              227.57              22.757E-09         59.7378E-06 
              228.37              22.837E-09         59.9226E-06 
