
                  X             Displacement          Force      

                0.                -0.                 0.         
                1.E-03           100.E-15             1.08566E-09
                2.E-03           200.E-15           679.41E-12   
                3.5E-03          350.E-15            67.6342E-12 
                5.75E-03         575.E-15             5.33598E-12
                9.125E-03        912.5E-15          524.07E-15   
               14.1875E-03         1.41875E-12       52.3466E-15 
               21.7812E-03         2.17813E-12        5.23341E-15
               33.1719E-03         3.31719E-12      523.388E-18  
               50.2578E-03         5.02578E-12       52.3371E-18 
               75.8867E-03         7.58867E-12        5.23344E-18
              114.33E-03          11.433E-12        523.285E-21  
              171.995E-03         17.1995E-12        52.3247E-21 
              258.493E-03         25.8493E-12         5.23194E-21
              388.239E-03         38.8239E-12       523.123E-24  
              582.859E-03         58.2859E-12        52.302E-24  
              874.788E-03         87.4788E-12         5.22867E-24
                1.31268          131.268E-12        522.639E-27  
                1.96952          196.952E-12         52.2296E-27 
                2.86952          286.952E-12          5.21827E-27
                3.76952          376.952E-12        521.357E-30  
                4.66952          466.952E-12         52.0888E-30 
                5.56952          556.952E-12          5.20418E-30
                6.46952          646.952E-12        519.949E-33  
                7.36952          736.952E-12         51.948E-33  
                8.26952          826.952E-12          5.19011E-33
                9.16952          916.952E-12        518.541E-36  
               10.0695             1.00695E-09      487.811E-09  
               10.9695             1.09695E-09        1.30399E-06
               11.4195             1.14195E-09        1.67441E-06
               11.757              1.1757E-09         1.91342E-06
               12.2633             1.22633E-09        2.16099E-06
               13.0226             1.30226E-09        2.45214E-06
               13.9226             1.39226E-09        2.76286E-06
               14.8226             1.48226E-09        3.02051E-06
               15.7226             1.57226E-09        3.25915E-06
               16.6226             1.66226E-09        3.48696E-06
               17.5226             1.75226E-09        3.70632E-06
               18.4226             1.84226E-09        3.91706E-06
               19.3226             1.93226E-09        4.12069E-06
               20.2226             2.02226E-09        4.31776E-06
               21.1226             2.11226E-09        4.50811E-06
               22.0226             2.20226E-09        4.69077E-06
               22.9226             2.29226E-09        4.86457E-06
               23.8226             2.38226E-09        5.02932E-06
               24.7226             2.47227E-09        5.18578E-06
               25.6226             2.56227E-09        5.33459E-06
               26.5226             2.65226E-09        5.47618E-06
               27.4226             2.74226E-09        5.61094E-06
               28.3226             2.83226E-09        5.73919E-06
               29.2226             2.92226E-09        5.86134E-06
               30.1226             3.01226E-09        5.97791E-06
               31.0226             3.10226E-09        6.08952E-06
               31.9226             3.19226E-09        6.19672E-06
               32.8226             3.28226E-09        6.30001E-06
               33.7226             3.37227E-09        6.39977E-06
               34.6226             3.46226E-09        6.49628E-06
               35.5226             3.55226E-09        6.58977E-06
               36.4226             3.64227E-09        6.68046E-06
               37.3226             3.73226E-09        6.76854E-06
               38.2226             3.82226E-09        6.8542E-06 
               39.1226             3.91226E-09        6.93761E-06
               40.0226             4.00226E-09        7.01894E-06
               40.9226             4.09226E-09        7.0983E-06 
               41.8226             4.18226E-09        7.17581E-06
               42.7226             4.27227E-09        7.25156E-06
               43.6226             4.36227E-09        7.32564E-06
               44.5226             4.45227E-09        7.39813E-06
               45.4226             4.54226E-09        7.46908E-06
               46.3226             4.63226E-09        7.53857E-06
               47.2226             4.72226E-09        7.60665E-06
               48.1226             4.81226E-09        7.67339E-06
               49.0226             4.90226E-09        7.73882E-06
               49.9226             4.99226E-09        7.80302E-06
               50.8226             5.08226E-09        7.86603E-06
               51.7226             5.17226E-09        7.92791E-06
               52.6226             5.26227E-09        7.9887E-06 
               53.5226             5.35227E-09        8.04844E-06
               54.4226             5.44227E-09        8.10718E-06
               55.3226             5.53226E-09        8.16494E-06
               56.2226             5.62226E-09        8.22177E-06
               57.1226             5.71226E-09        8.2777E-06 
               58.0226             5.80226E-09        8.33276E-06
               58.9226             5.89227E-09        8.38699E-06
               59.8226             5.98226E-09        8.44042E-06
               60.7226             6.07227E-09        8.49308E-06
               61.6226             6.16226E-09        9.61043E-06
               62.5226             6.25227E-09       11.2087E-06 
               63.4226             6.34227E-09       12.6473E-06 
               64.3226             6.43227E-09       13.9586E-06 
               65.2226             6.52226E-09       15.1382E-06 
               66.1227             6.61226E-09       16.1854E-06 
               67.0226             6.70227E-09       17.0913E-06 
               67.9226             6.79226E-09       17.8786E-06 
               68.8226             6.88227E-09       18.5808E-06 
               69.7226             6.97226E-09       19.2122E-06 
               70.6227             7.06227E-09       19.7832E-06 
               71.5226             7.15227E-09       20.3058E-06 
               72.4226             7.24227E-09       20.7906E-06 
               73.3226             7.33226E-09       21.2449E-06 
               74.2226             7.42226E-09       21.6743E-06 
               75.1227             7.51227E-09       22.0822E-06 
               76.0226             7.60227E-09       22.4709E-06 
               76.9226             7.69227E-09       22.8426E-06 
               77.8226             7.78227E-09       23.199E-06  
               78.7226             7.87226E-09       23.5416E-06 
               79.6227             7.96227E-09       23.8715E-06 
               80.5226             8.05227E-09       24.1892E-06 
               81.4226             8.14227E-09       24.4957E-06 
               82.3226             8.23227E-09       24.792E-06  
               83.2226             8.32227E-09       25.0789E-06 
               84.1227             8.41227E-09       25.3573E-06 
               85.0226             8.50226E-09       25.6279E-06 
               85.9226             8.59227E-09       25.8911E-06 
               86.8226             8.68227E-09       26.1475E-06 
               87.7226             8.77226E-09       26.3975E-06 
               88.6227             8.86226E-09       26.6414E-06 
               89.5226             8.95226E-09       26.8796E-06 
               90.4226             9.04226E-09       27.1124E-06 
               91.3226             9.13226E-09       27.34E-06   
               92.2226             9.22226E-09       27.5627E-06 
               93.1227             9.31226E-09       27.7808E-06 
               94.0226             9.40226E-09       27.9945E-06 
               94.9226             9.49226E-09       28.2039E-06 
               95.8226             9.58226E-09       28.4092E-06 
               96.7226             9.67227E-09       28.6107E-06 
               97.6227             9.76227E-09       28.8085E-06 
               98.5226             9.85227E-09       29.0027E-06 
               99.4226             9.94227E-09       29.1936E-06 
              100.323             10.0323E-09        29.3812E-06 
              101.223             10.1223E-09        29.5657E-06 
              102.123             10.2123E-09        29.7473E-06 
              103.023             10.3023E-09        29.9261E-06 
              103.923             10.3923E-09        30.1022E-06 
              104.823             10.4823E-09        30.2757E-06 
              105.723             10.5723E-09        30.4466E-06 
              106.623             10.6623E-09        30.615E-06  
              107.523             10.7523E-09        30.7811E-06 
              108.423             10.8423E-09        30.9448E-06 
              109.323             10.9323E-09        31.1063E-06 
              110.223             11.0223E-09        31.2657E-06 
              111.123             11.1123E-09        31.423E-06  
              112.023             11.2023E-09        31.5783E-06 
              112.923             11.2923E-09        31.7316E-06 
              113.823             11.3823E-09        31.883E-06  
              114.723             11.4723E-09        32.0325E-06 
              115.623             11.5623E-09        32.1803E-06 
              116.523             11.6523E-09        32.3263E-06 
              117.423             11.7423E-09        32.4706E-06 
              118.323             11.8323E-09        32.6132E-06 
              119.223             11.9223E-09        32.9881E-06 
              120.123             12.0123E-09        33.4443E-06 
              121.023             12.1023E-09        33.8763E-06 
              121.923             12.1923E-09        34.4153E-06 
              122.823             12.2823E-09        35.2129E-06 
              123.723             12.3723E-09        36.1956E-06 
              124.623             12.4623E-09        37.0876E-06 
              125.523             12.5523E-09        37.8901E-06 
              126.423             12.6423E-09        38.6062E-06 
              127.323             12.7323E-09        39.2488E-06 
              128.223             12.8223E-09        39.8294E-06 
              129.123             12.9123E-09        40.3595E-06 
              130.023             13.0023E-09        40.8491E-06 
              130.923             13.0923E-09        41.3051E-06 
              131.823             13.1823E-09        41.7308E-06 
              132.723             13.2723E-09        42.1279E-06 
              133.623             13.3623E-09        42.4999E-06 
              134.523             13.4523E-09        42.8509E-06 
              135.423             13.5423E-09        43.1841E-06 
              136.323             13.6323E-09        43.5016E-06 
              137.223             13.7223E-09        43.8046E-06 
              138.123             13.8123E-09        44.0947E-06 
              139.023             13.9023E-09        44.3733E-06 
              139.923             13.9923E-09        44.6415E-06 
              140.823             14.0823E-09        44.9006E-06 
              141.723             14.1723E-09        45.1516E-06 
              142.623             14.2623E-09        45.3955E-06 
              143.523             14.3523E-09        45.6333E-06 
              144.423             14.4423E-09        45.8657E-06 
              145.323             14.5323E-09        46.0933E-06 
              146.223             14.6223E-09        46.3166E-06 
              147.123             14.7123E-09        46.5359E-06 
              148.023             14.8023E-09        46.7515E-06 
              148.923             14.8923E-09        46.9636E-06 
              149.823             14.9823E-09        47.1723E-06 
              150.723             15.0723E-09        47.3779E-06 
              151.623             15.1623E-09        47.5802E-06 
              152.523             15.2523E-09        47.7792E-06 
              153.423             15.3423E-09        47.975E-06  
              154.323             15.4323E-09        48.1678E-06 
              155.223             15.5223E-09        48.3577E-06 
              156.123             15.6123E-09        48.545E-06  
              157.023             15.7023E-09        48.7297E-06 
              157.923             15.7923E-09        48.9121E-06 
              158.823             15.8823E-09        49.0923E-06 
              159.723             15.9723E-09        49.2704E-06 
              160.623             16.0623E-09        49.4463E-06 
              161.523             16.1523E-09        49.6203E-06 
              162.423             16.2423E-09        49.7925E-06 
              163.323             16.3323E-09        49.9628E-06 
              164.223             16.4223E-09        50.1313E-06 
              165.123             16.5123E-09        50.2982E-06 
              166.023             16.6023E-09        50.4633E-06 
              166.923             16.6923E-09        50.6268E-06 
              167.823             16.7823E-09        50.7887E-06 
              168.723             16.8723E-09        50.949E-06  
              169.623             16.9623E-09        51.1079E-06 
              170.523             17.0523E-09        51.2653E-06 
              171.423             17.1423E-09        51.4213E-06 
              172.323             17.2323E-09        51.5759E-06 
              173.223             17.3223E-09        51.7292E-06 
              174.123             17.4123E-09        51.8812E-06 
              175.023             17.5023E-09        52.0319E-06 
              175.923             17.5923E-09        52.1814E-06 
              176.823             17.6823E-09        52.3298E-06 
              177.723             17.7723E-09        52.477E-06  
              178.623             17.8623E-09        52.6231E-06 
              179.523             17.9523E-09        52.7682E-06 
              180.423             18.0423E-09        52.9121E-06 
              181.323             18.1323E-09        53.0549E-06 
              182.223             18.2223E-09        53.1966E-06 
              183.123             18.3123E-09        53.3374E-06 
              184.023             18.4023E-09        53.4771E-06 
              184.923             18.4923E-09        53.6159E-06 
              185.823             18.5823E-09        53.7537E-06 
              186.723             18.6723E-09        53.8907E-06 
              187.623             18.7623E-09        54.0267E-06 
              188.523             18.8523E-09        54.1617E-06 
              189.423             18.9423E-09        54.2959E-06 
              190.323             19.0323E-09        54.4292E-06 
              191.223             19.1223E-09        54.5617E-06 
              192.123             19.2123E-09        54.6934E-06 
              193.023             19.3023E-09        54.8242E-06 
              193.923             19.3923E-09        54.9543E-06 
              194.823             19.4823E-09        55.0836E-06 
              195.723             19.5723E-09        55.2121E-06 
              196.623             19.6623E-09        55.34E-06   
              197.523             19.7523E-09        55.4673E-06 
              198.423             19.8423E-09        55.5938E-06 
              199.323             19.9323E-09        55.7195E-06 
              200.223             20.0223E-09        55.8444E-06 
              201.123             20.1123E-09        55.9684E-06 
              202.023             20.2023E-09        56.0919E-06 
              202.923             20.2923E-09        56.2146E-06 
              203.823             20.3823E-09        56.3368E-06 
              204.723             20.4723E-09        56.4582E-06 
              205.623             20.5623E-09        56.5791E-06 
              206.523             20.6523E-09        56.6993E-06 
              207.423             20.7423E-09        56.8191E-06 
              208.323             20.8323E-09        56.9384E-06 
              209.223             20.9223E-09        57.0571E-06 
              210.123             21.0123E-09        57.1752E-06 
              211.023             21.1023E-09        57.2928E-06 
              211.923             21.1923E-09        57.4099E-06 
              212.823             21.2823E-09        57.5265E-06 
              213.723             21.3723E-09        57.6427E-06 
              214.623             21.4623E-09        57.7586E-06 
              215.523             21.5523E-09        57.874E-06  
              216.423             21.6423E-09        57.9889E-06 
              217.323             21.7323E-09        58.1035E-06 
              218.223             21.8223E-09        58.2176E-06 
              219.123             21.9123E-09        58.3313E-06 
              220.023             22.0023E-09        58.4446E-06 
              220.923             22.0923E-09        58.5574E-06 
              221.823             22.1823E-09        58.6697E-06 
              222.723             22.2723E-09        58.7815E-06 
              223.623             22.3623E-09        58.8928E-06 
              224.523             22.4523E-09        59.0036E-06 
              225.423             22.5423E-09        59.114E-06  
              226.323             22.6323E-09        59.224E-06  
              227.223             22.7223E-09        59.3336E-06 
              228.123             22.8123E-09        59.4429E-06 
              229.023             22.9023E-09        59.5518E-06 
              229.923             22.9923E-09        59.6605E-06 
              230.823             23.0823E-09        59.7689E-06 
              231.723             23.1723E-09        59.8768E-06 
              232.623             23.2623E-09        59.9846E-06 
              233.523             23.3523E-09        60.0921E-06 
              234.423             23.4423E-09        60.1993E-06 
              235.323             23.5323E-09        60.3062E-06 
              236.223             23.6223E-09        60.4129E-06 
              237.123             23.7123E-09        60.5193E-06 
              238.023             23.8023E-09        60.6254E-06 
              238.923             23.8923E-09        60.7313E-06 
              239.823             23.9823E-09        60.8371E-06 
              240.723             24.0723E-09        60.9426E-06 
              241.623             24.1623E-09        61.0479E-06 
              242.523             24.2523E-09        61.1996E-06 
              243.423             24.3423E-09        61.6703E-06 
              244.323             24.4323E-09        62.1217E-06 
              245.223             24.5223E-09        62.5494E-06 
              246.123             24.6123E-09        62.9537E-06 
              247.023             24.7023E-09        63.3345E-06 
              247.923             24.7923E-09        63.69E-06   
              248.823             24.8823E-09        64.0224E-06 
              249.723             24.9723E-09        64.3346E-06 
              250.623             25.0623E-09        64.8421E-06 
              251.523             25.1523E-09        65.4745E-06 
              252.423             25.2423E-09        66.0862E-06 
              253.323             25.3323E-09        66.6678E-06 
              254.223             25.4223E-09        67.2136E-06 
              255.123             25.5123E-09        67.7269E-06 
