
                  X             Displacement          Force      

                0.                -0.                 0.         
                1.E-03           100.E-15             1.08566E-09
                2.E-03           200.E-15           679.41E-12   
                3.5E-03          350.E-15            67.6342E-12 
                5.75E-03         575.E-15             5.33598E-12
                9.125E-03        912.5E-15          524.07E-15   
               14.1875E-03         1.41875E-12       52.3466E-15 
               21.7812E-03         2.17813E-12        5.23341E-15
               33.1719E-03         3.31719E-12      523.388E-18  
               50.2578E-03         5.02578E-12       52.3371E-18 
               75.8867E-03         7.58867E-12        5.23344E-18
              114.33E-03          11.433E-12        523.285E-21  
              171.995E-03         17.1995E-12        52.3247E-21 
              258.493E-03         25.8493E-12         5.23194E-21
              388.239E-03         38.8239E-12       523.123E-24  
              582.859E-03         58.2859E-12        52.302E-24  
              874.788E-03         87.4788E-12         5.22867E-24
                1.31268          131.268E-12        522.639E-27  
                1.96952          196.952E-12         52.2296E-27 
                2.86952          286.952E-12          5.21827E-27
                3.76952          376.952E-12        521.357E-30  
                4.66952          466.952E-12         52.0888E-30 
                5.56952          556.952E-12          5.20418E-30
                6.46952          646.952E-12        519.949E-33  
                7.36952          736.952E-12         51.948E-33  
                8.26952          826.952E-12          5.19011E-33
                9.16952          916.952E-12        518.541E-36  
               10.0695             1.00695E-09      487.811E-09  
               10.9695             1.09695E-09        1.30416E-06
               11.8695             1.18695E-09        2.11986E-06
               12.7695             1.27695E-09        2.80591E-06
               13.6695             1.36695E-09        3.25589E-06
               14.5695             1.45695E-09        3.59798E-06
               15.4695             1.54695E-09        3.91691E-06
               16.3695             1.63695E-09        4.19465E-06
               17.2695             1.72695E-09        4.44405E-06
               18.1695             1.81695E-09        4.67555E-06
               19.0695             1.90695E-09        4.89555E-06
               19.9695             1.99695E-09        5.10694E-06
               20.8695             2.08695E-09        5.31073E-06
               21.7695             2.17695E-09        5.50677E-06
               22.6695             2.26695E-09        5.69521E-06
               23.5695             2.35695E-09        5.87687E-06
               24.4695             2.44695E-09        6.05229E-06
               25.3695             2.53695E-09        6.22161E-06
               26.2695             2.62695E-09        6.38479E-06
               27.1695             2.71695E-09        6.54148E-06
               28.0695             2.80695E-09        6.69093E-06
               28.9695             2.89695E-09        6.8318E-06 
               29.8695             2.98695E-09        6.96418E-06
               30.7695             3.07695E-09        7.08911E-06
               31.6695             3.16695E-09        7.2072E-06 
               32.5695             3.25695E-09        7.31883E-06
               33.4695             3.34695E-09        7.42446E-06
               34.3695             3.43695E-09        7.52458E-06
               35.2695             3.52695E-09        7.61963E-06
               36.1695             3.61695E-09        7.70935E-06
               37.0695             3.70695E-09        7.79356E-06
               37.9695             3.79695E-09        7.87304E-06
               38.8695             3.88695E-09        7.94833E-06
               39.7695             3.97695E-09        8.01947E-06
               40.6695             4.06695E-09        8.08694E-06
               41.5695             4.15695E-09        8.1513E-06 
               42.4695             4.24695E-09        8.21293E-06
               43.3695             4.33695E-09        8.27215E-06
               44.2695             4.42695E-09        8.32913E-06
               45.1695             4.51695E-09        8.38416E-06
               46.0695             4.60695E-09        8.43771E-06
               46.9695             4.69695E-09        8.48994E-06
               47.8695             4.78695E-09        8.54085E-06
               48.7695             4.87695E-09        8.59046E-06
               49.6695             4.96695E-09        8.63886E-06
               50.5695             5.05695E-09        8.68618E-06
               51.4695             5.14695E-09        8.73252E-06
               52.3695             5.23695E-09        8.77791E-06
               53.2695             5.32695E-09        8.82242E-06
               54.1695             5.41695E-09        8.86607E-06
               55.0695             5.50695E-09        8.90888E-06
               55.9695             5.59695E-09        8.95086E-06
               56.8695             5.68695E-09        8.99202E-06
               57.7695             5.77695E-09        9.03235E-06
               58.6695             5.86695E-09        9.07183E-06
               59.5695             5.95695E-09        9.11017E-06
               60.4695             6.04695E-09        9.14769E-06
               61.3695             6.13695E-09       10.2636E-06 
               62.2695             6.22695E-09       11.9492E-06 
               63.1695             6.31695E-09       13.524E-06  
               64.0695             6.40695E-09       15.0195E-06 
               64.9695             6.49695E-09       16.4214E-06 
               65.8695             6.58695E-09       17.7088E-06 
               66.7695             6.67695E-09       18.8827E-06 
               67.6695             6.76695E-09       19.9327E-06 
               68.5695             6.85695E-09       20.8672E-06 
               69.4695             6.94695E-09       21.6931E-06 
               70.3695             7.03695E-09       22.4314E-06 
               71.2695             7.12695E-09       23.0965E-06 
               72.1695             7.21695E-09       23.6998E-06 
               73.0695             7.30695E-09       24.251E-06  
               73.9695             7.39695E-09       24.7579E-06 
               74.8695             7.48695E-09       25.2274E-06 
               75.7695             7.57695E-09       25.6658E-06 
               76.6695             7.66695E-09       26.0783E-06 
               77.5695             7.75695E-09       26.4686E-06 
               78.4695             7.84695E-09       26.8389E-06 
               79.3695             7.93695E-09       27.1912E-06 
               80.2695             8.02695E-09       27.5275E-06 
               81.1695             8.11695E-09       27.849E-06  
               82.0695             8.20695E-09       28.1569E-06 
               82.9695             8.29695E-09       28.4519E-06 
               83.8695             8.38695E-09       28.7347E-06 
               84.7695             8.47695E-09       29.0065E-06 
               85.6695             8.56695E-09       29.2681E-06 
               86.5695             8.65695E-09       29.5201E-06 
               87.4695             8.74695E-09       29.7624E-06 
               88.3695             8.83695E-09       29.9952E-06 
               89.2695             8.92695E-09       30.2196E-06 
               90.1695             9.01695E-09       30.4361E-06 
               91.0695             9.10695E-09       30.6451E-06 
               91.9695             9.19695E-09       30.8471E-06 
               92.8695             9.28695E-09       31.0425E-06 
               93.7695             9.37695E-09       31.2315E-06 
               94.6695             9.46695E-09       31.4143E-06 
               95.5695             9.55695E-09       31.5915E-06 
               96.4695             9.64695E-09       31.7635E-06 
               97.3695             9.73695E-09       31.931E-06  
               98.2695             9.82695E-09       32.0942E-06 
               99.1695             9.91695E-09       32.2533E-06 
              100.07              10.007E-09         32.4086E-06 
              100.97              10.097E-09         32.5605E-06 
              101.87              10.187E-09         32.7089E-06 
              102.77              10.277E-09         32.854E-06  
              103.67              10.367E-09         32.9958E-06 
              104.57              10.457E-09         33.1346E-06 
              105.47              10.547E-09         33.2704E-06 
              106.37              10.637E-09         33.4036E-06 
              107.27              10.727E-09         33.5345E-06 
              108.17              10.817E-09         33.6628E-06 
              109.07              10.907E-09         33.7888E-06 
              109.97              10.997E-09         33.9128E-06 
              110.87              11.087E-09         34.0346E-06 
              111.77              11.177E-09         34.1544E-06 
              112.67              11.267E-09         34.2723E-06 
              113.57              11.357E-09         34.3884E-06 
              114.47              11.447E-09         34.5031E-06 
              115.37              11.537E-09         34.7479E-06 
              116.27              11.627E-09         35.3514E-06 
              117.17              11.717E-09         36.0157E-06 
              118.07              11.807E-09         36.6312E-06 
              118.97              11.897E-09         37.3313E-06 
              119.87              11.987E-09         38.3792E-06 
              120.77              12.077E-09         39.4317E-06 
              121.67              12.167E-09         40.4146E-06 
              122.57              12.257E-09         41.3171E-06 
              123.47              12.347E-09         42.1234E-06 
              124.37              12.437E-09         42.843E-06  
              125.27              12.527E-09         43.4915E-06 
              126.17              12.617E-09         44.0811E-06 
              127.07              12.707E-09         44.6203E-06 
              127.97              12.797E-09         45.1146E-06 
              128.87              12.887E-09         45.5682E-06 
              129.77              12.977E-09         45.9854E-06 
              130.67              13.067E-09         46.3708E-06 
              131.57              13.157E-09         46.7282E-06 
              132.47              13.247E-09         47.0613E-06 
              133.37              13.337E-09         47.374E-06  
              134.27              13.427E-09         47.6696E-06 
              135.17              13.517E-09         47.9507E-06 
              136.07              13.607E-09         48.2192E-06 
              136.97              13.697E-09         48.4757E-06 
              137.87              13.787E-09         48.7206E-06 
              138.77              13.877E-09         48.9548E-06 
              139.67              13.967E-09         49.1792E-06 
              140.57              14.057E-09         49.3955E-06 
              141.47              14.147E-09         49.6045E-06 
              142.37              14.237E-09         49.8075E-06 
              143.27              14.327E-09         50.0052E-06 
              144.17              14.417E-09         50.1982E-06 
              145.07              14.507E-09         50.387E-06  
              145.97              14.597E-09         50.5716E-06 
              146.87              14.687E-09         50.7524E-06 
              147.77              14.777E-09         50.9295E-06 
              148.67              14.867E-09         51.1032E-06 
              149.57              14.957E-09         51.2735E-06 
              150.47              15.047E-09         51.4405E-06 
              151.37              15.137E-09         51.6043E-06 
              152.27              15.227E-09         51.7649E-06 
              153.17              15.317E-09         51.9223E-06 
              154.07              15.407E-09         52.0769E-06 
              154.97              15.497E-09         52.2291E-06 
              155.87              15.587E-09         52.3791E-06 
              156.77              15.677E-09         52.5271E-06 
              157.67              15.767E-09         52.673E-06  
              158.57              15.857E-09         52.8169E-06 
              159.47              15.947E-09         52.9589E-06 
              160.37              16.037E-09         53.0991E-06 
              161.27              16.127E-09         53.2374E-06 
              162.17              16.217E-09         53.3741E-06 
              163.07              16.307E-09         53.5094E-06 
              163.97              16.397E-09         53.6432E-06 
              164.87              16.487E-09         53.7756E-06 
              165.77              16.577E-09         53.9066E-06 
              166.67              16.667E-09         54.0364E-06 
              167.57              16.757E-09         54.1649E-06 
              168.47              16.847E-09         54.2921E-06 
              169.37              16.937E-09         54.4181E-06 
              170.27              17.027E-09         54.5427E-06 
              171.17              17.117E-09         54.6661E-06 
              172.07              17.207E-09         54.7883E-06 
              172.97              17.297E-09         54.9094E-06 
              173.87              17.387E-09         55.0293E-06 
              174.77              17.477E-09         55.1482E-06 
              175.67              17.567E-09         55.2659E-06 
              176.57              17.657E-09         55.3828E-06 
              177.47              17.747E-09         55.4987E-06 
              178.37              17.837E-09         55.6136E-06 
              179.27              17.927E-09         55.7275E-06 
              180.17              18.017E-09         55.8405E-06 
              181.07              18.107E-09         55.9527E-06 
              181.97              18.197E-09         56.0639E-06 
              182.87              18.287E-09         56.1743E-06 
              183.77              18.377E-09         56.2839E-06 
              184.67              18.467E-09         56.3928E-06 
              185.57              18.557E-09         56.501E-06  
              186.47              18.647E-09         56.6086E-06 
              187.37              18.737E-09         56.7155E-06 
              188.27              18.827E-09         56.8217E-06 
              189.17              18.917E-09         56.9274E-06 
              190.07              19.007E-09         57.0322E-06 
              190.97              19.097E-09         57.1364E-06 
              191.87              19.187E-09         57.2398E-06 
              192.77              19.277E-09         57.3427E-06 
              193.67              19.367E-09         57.4449E-06 
              194.57              19.457E-09         57.5463E-06 
              195.47              19.547E-09         57.6471E-06 
              196.37              19.637E-09         57.7473E-06 
              197.27              19.727E-09         57.847E-06  
              198.17              19.817E-09         57.946E-06  
              199.07              19.907E-09         58.0445E-06 
              199.97              19.997E-09         58.1424E-06 
              200.87              20.087E-09         58.2398E-06 
              201.77              20.177E-09         58.3368E-06 
              202.67              20.267E-09         58.4336E-06 
              203.57              20.357E-09         58.5299E-06 
              204.47              20.447E-09         58.6258E-06 
              205.37              20.537E-09         58.7214E-06 
              206.27              20.627E-09         58.8167E-06 
              207.17              20.717E-09         58.9115E-06 
              208.07              20.807E-09         59.0059E-06 
              208.97              20.897E-09         59.0999E-06 
              209.87              20.987E-09         59.1935E-06 
              210.77              21.077E-09         59.2867E-06 
              211.67              21.167E-09         59.3795E-06 
              212.57              21.257E-09         59.4719E-06 
              213.47              21.347E-09         59.564E-06  
              214.37              21.437E-09         59.6558E-06 
              215.27              21.527E-09         59.7474E-06 
              216.17              21.617E-09         59.8387E-06 
              217.07              21.707E-09         59.9297E-06 
              217.97              21.797E-09         60.0204E-06 
              218.87              21.887E-09         60.1106E-06 
              219.77              21.977E-09         60.2003E-06 
              220.67              22.067E-09         60.2897E-06 
              221.57              22.157E-09         60.3788E-06 
              222.47              22.247E-09         60.4677E-06 
              223.37              22.337E-09         60.5565E-06 
              224.27              22.427E-09         60.645E-06  
              225.17              22.517E-09         60.7333E-06 
              226.07              22.607E-09         60.8214E-06 
              226.97              22.697E-09         60.9094E-06 
              227.87              22.787E-09         60.9971E-06 
              228.77              22.877E-09         61.0847E-06 
              229.67              22.967E-09         61.172E-06  
              230.57              23.057E-09         61.2591E-06 
              231.47              23.147E-09         61.3463E-06 
              232.37              23.237E-09         61.4335E-06 
              233.27              23.327E-09         61.5208E-06 
              234.17              23.417E-09         61.6079E-06 
              235.07              23.507E-09         61.6948E-06 
              235.97              23.597E-09         62.0152E-06 
              236.87              23.687E-09         62.4988E-06 
              237.77              23.777E-09         62.9642E-06 
              238.67              23.867E-09         63.4056E-06 
              239.57              23.957E-09         63.9361E-06 
              240.47              24.047E-09         64.696E-06  
              241.37              24.137E-09         65.4334E-06 
              242.27              24.227E-09         66.1185E-06 
              243.17              24.317E-09         66.7607E-06 
              244.07              24.407E-09         67.3564E-06 
              244.97              24.497E-09         67.905E-06  
              245.87              24.587E-09         68.4126E-06 
              246.77              24.677E-09         68.8758E-06 
              247.67              24.767E-09         69.2966E-06 
              248.57              24.857E-09         69.6823E-06 
              249.47              24.947E-09         70.0377E-06 
              250.37              25.037E-09         70.3666E-06 
              251.27              25.127E-09         70.6721E-06 
              252.17              25.217E-09         70.9568E-06 
              253.07              25.307E-09         71.2228E-06 
              253.97              25.397E-09         71.471E-06  
              254.87              25.487E-09         71.7024E-06 
              255.77              25.577E-09         71.9189E-06 
              256.67              25.667E-09         72.1227E-06 
