
                  X                Height            Pressure    

                0.                -0.                 0.         
                1.E-03           100.E-15             1.07776E-09
                2.E-03           200.E-15           620.58E-12   
                3.5E-03          350.E-15            59.0772E-12 
                5.75E-03         575.E-15             4.75751E-12
                9.125E-03        912.5E-15          468.46E-15   
               14.1875E-03         1.41875E-12       46.796E-15  
               21.7812E-03         2.17813E-12        4.68016E-15
               33.1719E-03         3.31719E-12      468.016E-18  
               50.2578E-03         5.02578E-12       46.7983E-18 
               75.8867E-03         7.58867E-12        4.67966E-18
              114.33E-03          11.433E-12        467.916E-21  
              171.995E-03         17.1995E-12        46.7869E-21 
              258.493E-03         25.8493E-12         4.67834E-21
              388.239E-03         38.8239E-12       467.772E-24  
              582.859E-03         58.2859E-12        46.7682E-24 
              874.788E-03         87.4788E-12         4.67546E-24
                1.31268          131.268E-12        467.341E-27  
                1.96952          196.952E-12         46.7035E-27 
                2.66952          266.952E-12          4.66708E-27
                3.36952          336.952E-12        466.381E-30  
                4.06952          406.952E-12         46.6055E-30 
                4.76952          476.952E-12          4.65728E-30
                5.46952          546.952E-12        465.401E-33  
                6.16952          616.952E-12         46.5074E-33 
                6.86952          686.952E-12          4.64748E-33
                7.56952          756.952E-12        464.421E-36  
                8.26952          826.952E-12         46.4095E-36 
                8.96952          896.952E-12          4.63768E-36
                9.66952          966.952E-12        121.253E-09  
               10.3695             1.03695E-09      739.32E-09   
               11.0695             1.10695E-09        1.35689E-06
               11.7695             1.17695E-09        1.97329E-06
               12.4695             1.24695E-09        2.49638E-06
               13.1695             1.31695E-09        2.90852E-06
               13.8695             1.38695E-09        3.20856E-06
               14.5695             1.45695E-09        3.46776E-06
               15.2695             1.52695E-09        3.69867E-06
               15.9695             1.59695E-09        3.9066E-06 
               16.6695             1.66695E-09        4.09494E-06
               17.3695             1.73695E-09        4.26947E-06
               18.0695             1.80695E-09        4.43466E-06
               18.7695             1.87695E-09        4.59294E-06
               19.4695             1.94695E-09        4.74567E-06
               20.1695             2.01695E-09        4.89344E-06
               20.8695             2.08695E-09        5.03674E-06
               21.5695             2.15695E-09        5.17609E-06
               22.2695             2.22695E-09        5.31177E-06
               22.9695             2.29695E-09        5.44395E-06
               23.6695             2.36695E-09        5.57262E-06
               24.3695             2.43695E-09        5.69765E-06
               25.0695             2.50695E-09        5.8188E-06 
               25.7695             2.57695E-09        5.93602E-06
               26.4695             2.64695E-09        6.04935E-06
               27.1695             2.71695E-09        6.15874E-06
               27.8695             2.78695E-09        6.26407E-06
               28.5695             2.85695E-09        6.36529E-06
               29.2695             2.92695E-09        6.46245E-06
               29.9695             2.99695E-09        6.55569E-06
               30.6695             3.06695E-09        6.64516E-06
               31.3695             3.13695E-09        6.73101E-06
               32.0695             3.20695E-09        6.81338E-06
               32.7695             3.27695E-09        6.89244E-06
               33.4695             3.34695E-09        6.96838E-06
               34.1695             3.41695E-09        7.04143E-06
               34.8695             3.48695E-09        7.11183E-06
               35.5695             3.55695E-09        7.17982E-06
               36.2695             3.62695E-09        7.24561E-06
               36.9695             3.69695E-09        7.30937E-06
               37.6695             3.76695E-09        7.37123E-06
               38.3695             3.83695E-09        7.43131E-06
               39.0695             3.90695E-09        7.48969E-06
               39.7695             3.97695E-09        7.54642E-06
               40.4695             4.04695E-09        7.60158E-06
               41.1695             4.11695E-09        7.65524E-06
               41.8695             4.18695E-09        7.70747E-06
               42.5695             4.25695E-09        7.75836E-06
               43.2695             4.32695E-09        7.80799E-06
               43.9695             4.39695E-09        7.85642E-06
               44.6695             4.46695E-09        7.90372E-06
               45.3695             4.53695E-09        7.94993E-06
               46.0695             4.60695E-09        7.99511E-06
               46.7695             4.67695E-09        8.03931E-06
               47.4695             4.74695E-09        8.08258E-06
               48.1695             4.81695E-09        8.12496E-06
               48.8695             4.88695E-09        8.16651E-06
               49.5695             4.95695E-09        8.20724E-06
               50.2695             5.02695E-09        8.24719E-06
               50.9695             5.09695E-09        8.2864E-06 
               51.6695             5.16695E-09        8.32481E-06
               52.3695             5.23695E-09        8.36248E-06
               53.0695             5.30695E-09        8.39945E-06
               53.7695             5.37695E-09        8.43576E-06
               54.4695             5.44695E-09        8.47142E-06
               55.1695             5.51695E-09        8.50648E-06
               55.8695             5.58695E-09        8.54097E-06
               56.5695             5.65695E-09        8.57491E-06
               57.2695             5.72695E-09        8.60833E-06
               57.9695             5.79695E-09        8.64124E-06
               58.6695             5.86695E-09        8.67365E-06
               59.3695             5.93695E-09        8.70552E-06
               60.0695             6.00695E-09        8.7369E-06 
               60.7695             6.07695E-09        8.76782E-06
               61.4695             6.14695E-09        9.22588E-06
               62.1695             6.21695E-09       10.2907E-06 
               62.8695             6.28695E-09       11.4886E-06 
               63.5695             6.35695E-09       12.6643E-06 
               64.2695             6.42695E-09       13.7797E-06 
               64.9695             6.49695E-09       14.8297E-06 
               65.6695             6.56695E-09       15.8049E-06 
               66.3695             6.63695E-09       16.6863E-06 
               67.0695             6.70695E-09       17.4757E-06 
               67.7695             6.77695E-09       18.1878E-06 
               68.4695             6.84695E-09       18.835E-06  
               69.1695             6.91695E-09       19.4232E-06 
               69.8695             6.98695E-09       19.9572E-06 
               70.5695             7.05695E-09       20.4464E-06 
               71.2695             7.12695E-09       20.8988E-06 
               71.9695             7.19695E-09       21.3188E-06 
               72.6695             7.26695E-09       21.7088E-06 
               73.3695             7.33695E-09       22.0722E-06 
               74.0695             7.40695E-09       22.413E-06  
               74.7695             7.47695E-09       22.7351E-06 
               75.4695             7.54695E-09       23.0413E-06 
               76.1695             7.61695E-09       23.3336E-06 
               76.8695             7.68695E-09       23.6138E-06 
               77.5695             7.75695E-09       23.883E-06  
               78.2695             7.82695E-09       24.1421E-06 
               78.9695             7.89695E-09       24.3921E-06 
               79.6695             7.96695E-09       24.6337E-06 
               80.3695             8.03695E-09       24.8676E-06 
               81.0695             8.10695E-09       25.0941E-06 
               81.7695             8.17695E-09       25.3138E-06 
               82.4695             8.24695E-09       25.5272E-06 
               83.1695             8.31695E-09       25.7345E-06 
               83.8695             8.38695E-09       25.9361E-06 
               84.5695             8.45695E-09       26.1324E-06 
               85.2695             8.52695E-09       26.3236E-06 
               85.9695             8.59695E-09       26.5099E-06 
               86.6695             8.66695E-09       26.6915E-06 
               87.3695             8.73695E-09       26.8687E-06 
               88.0695             8.80695E-09       27.0418E-06 
               88.7695             8.87695E-09       27.211E-06  
               89.4695             8.94695E-09       27.3764E-06 
               90.1695             9.01695E-09       27.5382E-06 
               90.8695             9.08695E-09       27.6967E-06 
               91.5695             9.15695E-09       27.8519E-06 
               92.2695             9.22695E-09       28.004E-06  
               92.9695             9.29695E-09       28.153E-06  
               93.6695             9.36695E-09       28.2992E-06 
               94.3695             9.43695E-09       28.4425E-06 
               95.0695             9.50695E-09       28.5831E-06 
               95.7695             9.57695E-09       28.721E-06  
               96.4695             9.64695E-09       28.8562E-06 
               97.1695             9.71695E-09       28.9889E-06 
               97.8695             9.78695E-09       29.1192E-06 
               98.5695             9.85695E-09       29.2471E-06 
               99.2695             9.92695E-09       29.3728E-06 
               99.9695             9.99695E-09       29.4964E-06 
              100.67              10.067E-09         29.6177E-06 
              101.37              10.137E-09         29.7371E-06 
              102.07              10.207E-09         29.8545E-06 
              102.77              10.277E-09         29.9699E-06 
              103.47              10.347E-09         30.0836E-06 
              104.17              10.417E-09         30.1955E-06 
              104.87              10.487E-09         30.3058E-06 
              105.57              10.557E-09         30.4145E-06 
              106.27              10.627E-09         30.5217E-06 
              106.97              10.697E-09         30.6275E-06 
              107.67              10.767E-09         30.7319E-06 
              108.37              10.837E-09         30.835E-06  
              109.07              10.907E-09         30.9368E-06 
              109.77              10.977E-09         31.0375E-06 
              110.47              11.047E-09         31.137E-06  
              111.17              11.117E-09         31.2354E-06 
              111.87              11.187E-09         31.3326E-06 
              112.57              11.257E-09         31.4286E-06 
              113.27              11.327E-09         31.5236E-06 
              113.97              11.397E-09         31.6173E-06 
              114.67              11.467E-09         31.71E-06   
              115.37              11.537E-09         31.8016E-06 
              116.07              11.607E-09         31.8922E-06 
              116.77              11.677E-09         32.2942E-06 
              117.47              11.747E-09         32.7724E-06 
              118.17              11.817E-09         33.2258E-06 
              118.87              11.887E-09         33.6496E-06 
              119.57              11.957E-09         34.0364E-06 
              120.27              12.027E-09         34.3923E-06 
              120.97              12.097E-09         34.7203E-06 
              121.67              12.167E-09         35.2064E-06 
              122.37              12.237E-09         35.7172E-06 
              123.07              12.307E-09         36.2097E-06 
              123.77              12.377E-09         36.8687E-06 
              124.47              12.447E-09         37.489E-06  
              125.17              12.517E-09         38.0691E-06 
              125.87              12.587E-09         38.6073E-06 
              126.57              12.657E-09         39.1065E-06 
              127.27              12.727E-09         39.5714E-06 
              127.97              12.797E-09         40.0047E-06 
              128.67              12.867E-09         40.4092E-06 
              129.37              12.937E-09         40.7853E-06 
              130.07              13.007E-09         41.1304E-06 
              130.77              13.077E-09         41.4482E-06 
              131.47              13.147E-09         41.7436E-06 
              132.17              13.217E-09         42.0201E-06 
              132.87              13.287E-09         42.281E-06  
              133.57              13.357E-09         42.5289E-06 
              134.27              13.427E-09         42.7657E-06 
              134.97              13.497E-09         42.9928E-06 
              135.67              13.567E-09         43.211E-06  
              136.37              13.637E-09         43.4211E-06 
              137.07              13.707E-09         43.6237E-06 
              137.77              13.777E-09         43.8191E-06 
              138.47              13.847E-09         44.0079E-06 
              139.17              13.917E-09         44.1906E-06 
              139.87              13.987E-09         44.3679E-06 
              140.57              14.057E-09         44.5401E-06 
              141.27              14.127E-09         44.708E-06  
              141.97              14.197E-09         44.8719E-06 
              142.67              14.267E-09         45.0323E-06 
              143.37              14.337E-09         45.1893E-06 
              144.07              14.407E-09         45.3433E-06 
              144.77              14.477E-09         45.4944E-06 
              145.47              14.547E-09         45.6428E-06 
              146.17              14.617E-09         45.7888E-06 
              146.87              14.687E-09         45.9323E-06 
              147.57              14.757E-09         46.0736E-06 
              148.27              14.827E-09         46.2128E-06 
              148.97              14.897E-09         46.3499E-06 
              149.67              14.967E-09         46.4851E-06 
              150.37              15.037E-09         46.6185E-06 
              151.07              15.107E-09         46.75E-06   
              151.77              15.177E-09         46.8798E-06 
              152.47              15.247E-09         47.0078E-06 
              153.17              15.317E-09         47.1343E-06 
              153.87              15.387E-09         47.2591E-06 
              154.57              15.457E-09         47.3825E-06 
              155.27              15.527E-09         47.5044E-06 
              155.97              15.597E-09         47.625E-06  
              156.67              15.667E-09         47.7441E-06 
              157.37              15.737E-09         47.862E-06  
              158.07              15.807E-09         47.9786E-06 
              158.77              15.877E-09         48.094E-06  
              159.47              15.947E-09         48.2083E-06 
              160.17              16.017E-09         48.3215E-06 
              160.87              16.087E-09         48.4336E-06 
              161.57              16.157E-09         48.5447E-06 
              162.27              16.227E-09         48.6549E-06 
              162.97              16.297E-09         48.7642E-06 
              163.67              16.367E-09         48.8726E-06 
              164.37              16.437E-09         48.9802E-06 
              165.07              16.507E-09         49.0869E-06 
              165.77              16.577E-09         49.1928E-06 
              166.47              16.647E-09         49.2979E-06 
              167.17              16.717E-09         49.4022E-06 
              167.87              16.787E-09         49.5059E-06 
              168.57              16.857E-09         49.6088E-06 
              169.27              16.927E-09         49.711E-06  
              169.97              16.997E-09         49.8125E-06 
              170.67              17.067E-09         49.9134E-06 
              171.37              17.137E-09         50.0136E-06 
              172.07              17.207E-09         50.113E-06  
              172.77              17.277E-09         50.2118E-06 
              173.47              17.347E-09         50.3098E-06 
              174.17              17.417E-09         50.4072E-06 
              174.87              17.487E-09         50.5039E-06 
              175.57              17.557E-09         50.5999E-06 
              176.27              17.627E-09         50.6951E-06 
              176.97              17.697E-09         50.7896E-06 
              177.67              17.767E-09         50.8833E-06 
              178.37              17.837E-09         50.9763E-06 
              179.07              17.907E-09         51.0686E-06 
              179.77              17.977E-09         51.1602E-06 
              180.47              18.047E-09         51.2512E-06 
              181.17              18.117E-09         51.3416E-06 
              181.87              18.187E-09         51.4314E-06 
              182.57              18.257E-09         51.5207E-06 
              183.27              18.327E-09         51.6094E-06 
              183.97              18.397E-09         51.6976E-06 
              184.67              18.467E-09         51.7852E-06 
              185.37              18.537E-09         51.8723E-06 
              186.07              18.607E-09         51.9589E-06 
              186.77              18.677E-09         52.045E-06  
              187.47              18.747E-09         52.1306E-06 
              188.17              18.817E-09         52.2156E-06 
              188.87              18.887E-09         52.3002E-06 
              189.57              18.957E-09         52.3842E-06 
              190.27              19.027E-09         52.4678E-06 
              190.97              19.097E-09         52.5509E-06 
              191.67              19.167E-09         52.6335E-06 
              192.37              19.237E-09         52.7156E-06 
              193.07              19.307E-09         52.7972E-06 
              193.77              19.377E-09         52.8785E-06 
              194.47              19.447E-09         52.9592E-06 
              195.17              19.517E-09         53.0396E-06 
              195.87              19.587E-09         53.1196E-06 
              196.57              19.657E-09         53.1992E-06 
              197.27              19.727E-09         53.2786E-06 
              197.97              19.797E-09         53.3575E-06 
              198.67              19.867E-09         53.4361E-06 
              199.37              19.937E-09         53.5142E-06 
              200.07              20.007E-09         53.5919E-06 
