"displacement,mm","force,kN","force,N"
-0.0,0.0,0.0
1e-13,1.08566e-12,1.08566e-09
2e-13,6.7941e-13,6.7941e-10
3.5e-13,6.76342e-14,6.76342e-11
5.75e-13,5.3359799999999996e-15,5.33598e-12
9.125e-13,5.240700000000001e-16,5.2407e-13
1.41875e-12,5.23466e-17,5.23466e-14
2.17813e-12,5.23341e-18,5.23341e-15
3.31719e-12,5.23388e-19,5.23388e-16
5.02578e-12,5.2337100000000006e-20,5.23371e-17
7.58867e-12,5.23344e-21,5.23344e-18
1.1433e-11,5.23285e-22,5.23285e-19
1.71995e-11,5.23247e-23,5.23247e-20
2.58493e-11,5.231940000000001e-24,5.23194e-21
3.88239e-11,5.23123e-25,5.23123e-22
5.82859e-11,5.230200000000001e-26,5.2302e-23
8.74788e-11,5.2286699999999996e-27,5.22867e-24
1.31268e-10,5.22639e-28,5.22639e-25
1.96952e-10,5.22296e-29,5.22296e-26
2.86952e-10,5.2182700000000005e-30,5.21827e-27
3.76952e-10,5.21357e-31,5.21357e-28
4.66952e-10,5.20888e-32,5.20888e-29
5.56952e-10,5.20418e-33,5.20418e-30
6.46952e-10,5.19949e-34,5.19949e-31
7.36952e-10,5.1948e-35,5.1948e-32
8.26952e-10,5.1901100000000004e-36,5.19011e-33
9.16952e-10,5.18541e-37,5.18541e-34
1.00695e-09,4.87811e-10,4.87811e-07
1.09695e-09,1.3041600000000002e-09,1.30416e-06
1.18695e-09,2.11992e-09,2.11992e-06
1.27695e-09,2.93461e-09,2.93461e-06
1.36695e-09,3.66032e-09,3.66032e-06
1.45695e-09,4.24052e-09,4.24052e-06
1.54695e-09,4.6233999999999996e-09,4.6234e-06
1.63695e-09,4.91806e-09,4.91806e-06
1.72695e-09,5.187530000000001e-09,5.18753e-06
1.81695e-09,5.43377e-09,5.43377e-06
1.90695e-09,5.64918e-09,5.64918e-06
1.99695e-09,5.83878e-09,5.83878e-06
2.08695e-09,6.0105500000000005e-09,6.01055e-06
2.17695e-09,6.17076e-09,6.17076e-06
2.26695e-09,6.32279e-09,6.32279e-06
2.35695e-09,6.46838e-09,6.46838e-06
2.44695e-09,6.60922e-09,6.60922e-06
2.53695e-09,6.74669e-09,6.74669e-06
2.62695e-09,6.8813e-09,6.8813e-06
2.71695e-09,7.013180000000001e-09,7.01318e-06
2.80695e-09,7.1424700000000005e-09,7.14247e-06
2.89695e-09,7.26927e-09,7.26927e-06
2.98695e-09,7.3937400000000006e-09,7.39374e-06
3.07695e-09,7.51579e-09,7.51579e-06
3.16695e-09,7.63532e-09,7.63532e-06
3.25695e-09,7.752230000000001e-09,7.75223e-06
3.34695e-09,7.86628e-09,7.86628e-06
3.43695e-09,7.97707e-09,7.97707e-06
3.52695e-09,8.084120000000002e-09,8.08412e-06
3.61695e-09,8.187019999999999e-09,8.18702e-06
3.70695e-09,8.2857e-09,8.2857e-06
3.79695e-09,8.38037e-09,8.38037e-06
3.88695e-09,8.47132e-09,8.47132e-06
3.97695e-09,8.5588e-09,8.5588e-06
4.06695e-09,8.642939999999999e-09,8.64294e-06
4.15695e-09,8.723840000000001e-09,8.72384e-06
4.24695e-09,8.80154e-09,8.80154e-06
4.33695e-09,8.87609e-09,8.87609e-06
4.42695e-09,8.947500000000001e-09,8.9475e-06
4.51695e-09,9.015840000000001e-09,9.01584e-06
4.60695e-09,9.08125e-09,9.08125e-06
4.69695e-09,9.14396e-09,9.14396e-06
4.78695e-09,9.20424e-09,9.20424e-06
4.87695e-09,9.26237e-09,9.26237e-06
4.96695e-09,9.318570000000001e-09,9.31857e-06
5.05695e-09,9.37304e-09,9.37304e-06
5.14695e-09,9.42592e-09,9.42592e-06
5.23695e-09,9.47731e-09,9.47731e-06
5.32695e-09,9.527270000000002e-09,9.52727e-06
5.41695e-09,9.57583e-09,9.57583e-06
5.50695e-09,9.623020000000001e-09,9.62302e-06
5.59695e-09,9.668930000000001e-09,9.66893e-06
5.68695e-09,9.71358e-09,9.71358e-06
5.77695e-09,9.757019999999999e-09,9.75702e-06
5.86695e-09,9.79932e-09,9.79932e-06
5.95695e-09,9.840559999999999e-09,9.84056e-06
6.04695e-09,9.88072e-09,9.88072e-06
6.13695e-09,1.08907e-08,1.08907e-05
6.22695e-09,1.2634699999999999e-08,1.26347e-05
6.31695e-09,1.43047e-08,1.43047e-05
6.40695e-09,1.5912e-08,1.5912e-05
6.49695e-09,1.74448e-08,1.74448e-05
6.58695e-09,1.88866e-08,1.88866e-05
6.67695e-09,2.02202e-08,2.02202e-05
6.76695e-09,2.1447800000000004e-08,2.14478e-05
6.85695e-09,2.25611e-08,2.25611e-05
6.94695e-09,2.35636e-08,2.35636e-05
7.03695e-09,2.44634e-08,2.44634e-05
7.12695e-09,2.52571e-08,2.52571e-05
7.21695e-09,2.59547e-08,2.59547e-05
7.30695e-09,2.65745e-08,2.65745e-05
7.39695e-09,2.71313e-08,2.71313e-05
7.48695e-09,2.7634e-08,2.7634e-05
7.57695e-09,2.80927e-08,2.80927e-05
7.66695e-09,2.8516800000000002e-08,2.85168e-05
7.75695e-09,2.89135e-08,2.89135e-05
7.84695e-09,2.92868e-08,2.92868e-05
7.93695e-09,2.96394e-08,2.96394e-05
8.02695e-09,2.99733e-08,2.99733e-05
8.11695e-09,3.02906e-08,3.02906e-05
8.20695e-09,3.05937e-08,3.05937e-05
8.29695e-09,3.08842e-08,3.08842e-05
8.38695e-09,3.11633e-08,3.11633e-05
8.47695e-09,3.1432e-08,3.1432e-05
8.56695e-09,3.16908e-08,3.16908e-05
8.65695e-09,3.1940200000000004e-08,3.19402e-05
8.74695e-09,3.21805e-08,3.21805e-05
8.83695e-09,3.24124e-08,3.24124e-05
8.92695e-09,3.2636499999999996e-08,3.26365e-05
9.01695e-09,3.28534e-08,3.28534e-05
9.10695e-09,3.30636e-08,3.30636e-05
9.19695e-09,3.32676e-08,3.32676e-05
9.28695e-09,3.3465900000000005e-08,3.34659e-05
9.37695e-09,3.36589e-08,3.36589e-05
9.46695e-09,3.3846900000000006e-08,3.38469e-05
9.55695e-09,3.4030399999999996e-08,3.40304e-05
9.64695e-09,3.42096e-08,3.42096e-05
9.73695e-09,3.43848e-08,3.43848e-05
9.82695e-09,3.4556e-08,3.4556e-05
9.91695e-09,3.47235e-08,3.47235e-05
1.0007e-08,3.48875e-08,3.48875e-05
1.0097e-08,3.50479e-08,3.50479e-05
1.0187e-08,3.52049e-08,3.52049e-05
1.0277e-08,3.5358699999999996e-08,3.53587e-05
1.0367e-08,3.55092e-08,3.55092e-05
1.0457e-08,3.56565e-08,3.56565e-05
1.0547e-08,3.58008e-08,3.58008e-05
1.0637e-08,3.59422e-08,3.59422e-05
1.0727e-08,3.60808e-08,3.60808e-05
1.0817e-08,3.62169e-08,3.62169e-05
1.0907e-08,3.63506e-08,3.63506e-05
1.0997e-08,3.64819e-08,3.64819e-05
1.1087e-08,3.66109e-08,3.66109e-05
1.1177e-08,3.67377e-08,3.67377e-05
1.1267e-08,3.68623e-08,3.68623e-05
1.1357e-08,3.7227100000000005e-08,3.72271e-05
1.1447e-08,3.77086e-08,3.77086e-05
1.1537e-08,3.84049e-08,3.84049e-05
1.1627e-08,3.90673e-08,3.90673e-05
1.1717e-08,3.96892e-08,3.96892e-05
1.1807e-08,4.06354e-08,4.06354e-05
1.1897e-08,4.17782e-08,4.17782e-05
1.1987e-08,4.28595e-08,4.28595e-05
1.2077e-08,4.3868200000000004e-08,4.38682e-05
1.2167e-08,4.4795600000000004e-08,4.47956e-05
1.2257e-08,4.56287e-08,4.56287e-05
1.2347e-08,4.6374e-08,4.6374e-05
1.2437e-08,4.70451e-08,4.70451e-05
1.2527e-08,4.7654400000000006e-08,4.76544e-05
1.2617e-08,4.8213e-08,4.8213e-05
1.2707e-08,4.87272e-08,4.87272e-05
1.2797e-08,4.9199800000000006e-08,4.91998e-05
1.2887e-08,4.96343e-08,4.96343e-05
1.2977e-08,5.00348e-08,5.00348e-05
1.3067e-08,5.0406e-08,5.0406e-05
1.3157e-08,5.07518e-08,5.07518e-05
1.3247e-08,5.10753e-08,5.10753e-05
1.3337e-08,5.13799e-08,5.13799e-05
1.3427e-08,5.1668400000000005e-08,5.16684e-05
1.3517e-08,5.19428e-08,5.19428e-05
1.3607e-08,5.2204499999999996e-08,5.22045e-05
1.3697e-08,5.2454399999999996e-08,5.24544e-05
1.3787e-08,5.26933e-08,5.26933e-05
1.3877e-08,5.29223e-08,5.29223e-05
1.3967e-08,5.31429e-08,5.31429e-05
1.4057e-08,5.3356400000000007e-08,5.33564e-05
1.4147e-08,5.35638e-08,5.35638e-05
1.4237e-08,5.37658e-08,5.37658e-05
1.4327e-08,5.39629e-08,5.39629e-05
1.4417e-08,5.4155600000000004e-08,5.41556e-05
1.4507e-08,5.43441e-08,5.43441e-05
1.4597e-08,5.45287e-08,5.45287e-05
1.4687e-08,5.4709500000000004e-08,5.47095e-05
1.4777e-08,5.4886799999999996e-08,5.48868e-05
1.4867e-08,5.50608e-08,5.50608e-05
1.4957e-08,5.52314e-08,5.52314e-05
1.5047e-08,5.53988e-08,5.53988e-05
1.5137e-08,5.5563000000000006e-08,5.5563e-05
1.5227e-08,5.5724099999999995e-08,5.57241e-05
1.5317e-08,5.58823e-08,5.58823e-05
1.5407e-08,5.6038e-08,5.6038e-05
1.5497e-08,5.61912e-08,5.61912e-05
1.5587e-08,5.63423e-08,5.63423e-05
1.5677e-08,5.64913e-08,5.64913e-05
1.5767e-08,5.6638300000000004e-08,5.66383e-05
1.5857e-08,5.678350000000001e-08,5.67835e-05
1.5947e-08,5.69271e-08,5.69271e-05
1.6037e-08,5.7069e-08,5.7069e-05
1.6127e-08,5.72094e-08,5.72094e-05
1.6217e-08,5.73483e-08,5.73483e-05
1.6307e-08,5.74858e-08,5.74858e-05
1.6397e-08,5.76219e-08,5.76219e-05
1.6487e-08,5.7756500000000005e-08,5.77565e-05
1.6577e-08,5.7889900000000005e-08,5.78899e-05
1.6667e-08,5.80219e-08,5.80219e-05
1.6757e-08,5.81527e-08,5.81527e-05
1.6847e-08,5.82823e-08,5.82823e-05
1.6937e-08,5.84108e-08,5.84108e-05
1.7027e-08,5.85381e-08,5.85381e-05
1.7117e-08,5.86643e-08,5.86643e-05
1.7207e-08,5.87895e-08,5.87895e-05
1.7297e-08,5.89137e-08,5.89137e-05
1.7387e-08,5.90367e-08,5.90367e-05
1.7477e-08,5.91589e-08,5.91589e-05
1.7567e-08,5.9280000000000005e-08,5.928e-05
1.7657e-08,5.94002e-08,5.94002e-05
1.7747e-08,5.95194e-08,5.95194e-05
1.7837e-08,5.96376e-08,5.96376e-05
1.7927e-08,5.9755e-08,5.9755e-05
1.8017e-08,5.98714e-08,5.98714e-05
1.8107e-08,5.99869e-08,5.99869e-05
1.8197e-08,6.01015e-08,6.01015e-05
1.8287e-08,6.02154e-08,6.02154e-05
1.8377e-08,6.03286e-08,6.03286e-05
1.8467e-08,6.04411e-08,6.04411e-05
1.8557e-08,6.055290000000001e-08,6.05529e-05
1.8647e-08,6.0664e-08,6.0664e-05
1.8737e-08,6.07745e-08,6.07745e-05
1.8827e-08,6.08844e-08,6.08844e-05
1.8917e-08,6.09936e-08,6.09936e-05
1.9007e-08,6.11022e-08,6.11022e-05
1.9097e-08,6.12102e-08,6.12102e-05
1.9187e-08,6.13177e-08,6.13177e-05
1.9277e-08,6.14246e-08,6.14246e-05
1.9367e-08,6.15308e-08,6.15308e-05
1.9457e-08,6.16365e-08,6.16365e-05
1.9547e-08,6.17417e-08,6.17417e-05
1.9637e-08,6.18463e-08,6.18463e-05
1.9727e-08,6.19503e-08,6.19503e-05
1.9817e-08,6.20538e-08,6.20538e-05
1.9907e-08,6.21569e-08,6.21569e-05
1.9997e-08,6.22594e-08,6.22594e-05
2.0087e-08,6.236159999999999e-08,6.23616e-05
2.0177e-08,6.24635e-08,6.24635e-05
2.0267e-08,6.256499999999999e-08,6.2565e-05
2.0357e-08,6.26661e-08,6.26661e-05
2.0447e-08,6.276700000000001e-08,6.2767e-05
2.0537e-08,6.28676e-08,6.28676e-05
2.0627e-08,6.29678e-08,6.29678e-05
2.0717e-08,6.30675e-08,6.30675e-05
2.0807e-08,6.316690000000001e-08,6.31669e-05
2.0897e-08,6.3266e-08,6.3266e-05
2.0987e-08,6.33648e-08,6.33648e-05
2.1077e-08,6.34632e-08,6.34632e-05
2.1167e-08,6.35614e-08,6.35614e-05
2.1257e-08,6.36593e-08,6.36593e-05
2.1347e-08,6.3757e-08,6.3757e-05
2.1437e-08,6.38544e-08,6.38544e-05
2.1527e-08,6.39513e-08,6.39513e-05
2.1617e-08,6.40479e-08,6.40479e-05
2.1707e-08,6.41442e-08,6.41442e-05
2.1797e-08,6.424e-08,6.424e-05
2.1887e-08,6.43355e-08,6.43355e-05
2.1977e-08,6.44307e-08,6.44307e-05
2.2067e-08,6.45256e-08,6.45256e-05
2.2157e-08,6.46204e-08,6.46204e-05
2.2247e-08,6.47151e-08,6.47151e-05
2.2337e-08,6.48096e-08,6.48096e-05
2.2427e-08,6.490389999999999e-08,6.49039e-05
2.2517e-08,6.499800000000001e-08,6.4998e-05
2.2607e-08,6.50919e-08,6.50919e-05
2.2697e-08,6.518559999999999e-08,6.51856e-05
2.2787e-08,6.5279e-08,6.5279e-05
2.2877e-08,6.537250000000001e-08,6.53725e-05
2.2967e-08,6.5466e-08,6.5466e-05
2.3057e-08,6.55597e-08,6.55597e-05
2.3147e-08,6.56533e-08,6.56533e-05
2.3237e-08,6.595910000000001e-08,6.59591e-05
2.3327e-08,6.64556e-08,6.64556e-05
2.3417e-08,6.70887e-08,6.70887e-05
2.3507e-08,6.79398e-08,6.79398e-05
2.3597e-08,6.87745e-08,6.87745e-05
2.3687e-08,6.95661e-08,6.95661e-05
2.3777e-08,7.031070000000001e-08,7.03107e-05
2.3867e-08,7.100310000000001e-08,7.10031e-05
2.3957e-08,7.16393e-08,7.16393e-05
2.4047e-08,7.222490000000001e-08,7.22249e-05
2.4137e-08,7.27633e-08,7.27633e-05
2.4227e-08,7.32542e-08,7.32542e-05
2.4317e-08,7.37039e-08,7.37039e-05
2.4407e-08,7.411929999999999e-08,7.41193e-05
2.4497e-08,7.450480000000001e-08,7.45048e-05
2.4587e-08,7.48645e-08,7.48645e-05
2.4677e-08,7.520140000000001e-08,7.52014e-05
2.4767e-08,7.55158e-08,7.55158e-05
2.4857e-08,7.580809999999999e-08,7.58081e-05
2.4947e-08,7.608e-08,7.608e-05
2.5037e-08,7.633320000000001e-08,7.63332e-05
2.5127e-08,7.65693e-08,7.65693e-05
2.5217e-08,7.67907e-08,7.67907e-05
2.5307e-08,7.69996e-08,7.69996e-05
2.5397e-08,7.7198e-08,7.7198e-05
2.5487e-08,7.73878e-08,7.73878e-05
2.5577e-08,7.757040000000001e-08,7.75704e-05
2.5667e-08,7.774729999999999e-08,7.77473e-05
2.5757e-08,7.79191e-08,7.79191e-05
2.5847e-08,7.80864e-08,7.80864e-05
2.5937e-08,7.82497e-08,7.82497e-05
2.6027e-08,7.84093e-08,7.84093e-05
2.6117e-08,7.86846e-08,7.86846e-05
2.6207e-08,7.897360000000001e-08,7.89736e-05
2.6297e-08,7.92518e-08,7.92518e-05
2.6387e-08,7.951780000000001e-08,7.95178e-05
2.6477e-08,7.97838e-08,7.97838e-05
2.6567e-08,8.01558e-08,8.01558e-05
2.6657e-08,8.05191e-08,8.05191e-05
2.6747e-08,8.08669e-08,8.08669e-05
2.6837e-08,8.119970000000001e-08,8.11997e-05
2.6927e-08,8.151670000000001e-08,8.15167e-05
2.7017e-08,8.18183e-08,8.18183e-05
2.7107e-08,8.2105e-08,8.2105e-05
2.7197e-08,8.23778e-08,8.23778e-05
2.7287e-08,8.263740000000001e-08,8.26374e-05
2.7377e-08,8.28847e-08,8.28847e-05
2.7467e-08,8.312060000000001e-08,8.31206e-05
2.7557e-08,8.33459e-08,8.33459e-05
2.7647e-08,8.35609e-08,8.35609e-05
2.7737e-08,8.376740000000001e-08,8.37674e-05
2.7827e-08,8.3966e-08,8.3966e-05
2.7917e-08,8.415749999999999e-08,8.41575e-05
2.8007e-08,8.43429e-08,8.43429e-05
2.8097e-08,8.45226e-08,8.45226e-05
2.8187e-08,8.46959e-08,8.46959e-05
2.8277e-08,8.48635e-08,8.48635e-05
2.8367e-08,8.502639999999999e-08,8.50264e-05
2.8457e-08,8.5185e-08,8.5185e-05
2.8547e-08,8.53397e-08,8.53397e-05
2.8637e-08,8.54951e-08,8.54951e-05
2.8727e-08,8.56394e-08,8.56394e-05
2.8817e-08,8.57823e-08,8.57823e-05
2.8907e-08,8.59224e-08,8.59224e-05
2.8997e-08,8.605980000000001e-08,8.60598e-05
2.9087e-08,8.61948e-08,8.61948e-05
2.9177e-08,8.63278e-08,8.63278e-05
2.9267e-08,8.64589e-08,8.64589e-05
2.9357e-08,8.65883e-08,8.65883e-05
2.9447e-08,8.67163e-08,8.67163e-05
2.9537e-08,8.68429e-08,8.68429e-05
2.9627e-08,8.69684e-08,8.69684e-05
2.9717e-08,8.70934e-08,8.70934e-05
2.9807e-08,8.72173e-08,8.72173e-05
2.9897e-08,8.734009999999999e-08,8.73401e-05
2.9987e-08,8.78022e-08,8.78022e-05
3.0077e-08,8.773319999999999e-08,8.77332e-05
3.0167e-08,8.776769999999999e-08,8.77677e-05
3.0257e-08,8.785540000000001e-08,8.78554e-05
3.0347e-08,8.79586e-08,8.79586e-05
3.0437e-08,8.806830000000001e-08,8.80683e-05
3.0527e-08,8.818029999999999e-08,8.81803e-05
3.0617e-08,8.82932e-08,8.82932e-05
3.0707e-08,8.840630000000001e-08,8.84063e-05
3.0797e-08,8.86035e-08,8.86035e-05
3.0887e-08,8.9007e-08,8.9007e-05
3.0977e-08,8.939880000000001e-08,8.93988e-05
3.1067e-08,8.977230000000001e-08,8.97723e-05
3.1157e-08,9.012519999999999e-08,9.01252e-05
3.1247e-08,9.04576e-08,9.04576e-05
3.1337e-08,9.08607e-08,9.08607e-05
3.1427e-08,9.1375e-08,9.1375e-05
3.1517e-08,9.20437e-08,9.20437e-05
3.1607e-08,9.27015e-08,9.27015e-05
3.1697e-08,9.33219e-08,9.33219e-05
3.1787e-08,9.39061e-08,9.39061e-05
3.1877e-08,9.44562e-08,9.44562e-05
3.1967e-08,9.49747e-08,9.49747e-05
3.2057e-08,9.55938e-08,9.55938e-05
3.2147e-08,9.63251e-08,9.63251e-05
3.2237e-08,9.70322e-08,9.70322e-05
3.2327e-08,9.77041e-08,9.77041e-05
3.2417e-08,9.83361e-08,9.83361e-05
3.2507e-08,9.892280000000001e-08,9.89228e-05
3.2597e-08,9.946319999999999e-08,9.94632e-05
3.2687e-08,9.99629e-08,9.99629e-05
3.2777e-08,1.0042799999999999e-07,0.000100428
3.2867e-08,1.0086500000000001e-07,0.000100865
3.2957e-08,1.01277e-07,0.000101277
3.3047e-08,1.01666e-07,0.000101666
3.3137e-08,1.02035e-07,0.000102035
3.3227e-08,1.02386e-07,0.000102386
3.3317e-08,1.0272000000000001e-07,0.00010272
3.3407e-08,1.03039e-07,0.000103039
3.3497e-08,1.03344e-07,0.000103344
3.3587e-08,1.03636e-07,0.000103636
3.3677e-08,1.03916e-07,0.000103916
3.3767e-08,1.04185e-07,0.000104185
3.38569e-08,1.0444499999999999e-07,0.000104445
3.3947e-08,1.04696e-07,0.000104696
3.4037e-08,1.0493900000000001e-07,0.000104939
3.4127e-08,1.0517400000000001e-07,0.000105174
3.4217e-08,1.05401e-07,0.000105401
3.4307e-08,1.05623e-07,0.000105623
3.4397e-08,1.05838e-07,0.000105838
3.4487e-08,1.06049e-07,0.000106049
3.4577e-08,1.0625500000000001e-07,0.000106255
3.4667e-08,1.06457e-07,0.000106457
3.4757e-08,1.069e-07,0.0001069
3.4847e-08,1.06953e-07,0.000106953
3.4937e-08,1.07088e-07,0.000107088
3.5027e-08,1.07254e-07,0.000107254
3.5117e-08,1.07429e-07,0.000107429
3.5207e-08,1.07607e-07,0.000107607
3.5297e-08,1.07784e-07,0.000107784
3.5387e-08,1.0796000000000001e-07,0.00010796
3.54769e-08,1.0813400000000001e-07,0.000108134
3.5567e-08,1.08306e-07,0.000108306
3.5657e-08,1.08476e-07,0.000108476
3.5747e-08,1.08645e-07,0.000108645
3.58369e-08,1.0881200000000001e-07,0.000108812
3.59269e-08,1.08977e-07,0.000108977
3.6017e-08,1.0914000000000001e-07,0.00010914
3.6107e-08,1.0930200000000001e-07,0.000109302
3.61969e-08,1.09463e-07,0.000109463
3.62869e-08,1.09623e-07,0.000109623
3.6377e-08,1.09782e-07,0.000109782
3.6467e-08,1.0993999999999999e-07,0.00010994
3.6557e-08,1.10097e-07,0.000110097
3.6647e-08,1.10253e-07,0.000110253
3.6737e-08,1.1041e-07,0.00011041
3.6827e-08,1.10565e-07,0.000110565
3.6917e-08,1.10719e-07,0.000110719
3.7007e-08,1.10872e-07,0.000110872
3.7097e-08,1.11024e-07,0.000111024
3.7187e-08,1.11176e-07,0.000111176
3.7277e-08,1.11327e-07,0.000111327
3.7367e-08,1.1147800000000001e-07,0.000111478
3.7457e-08,1.11627e-07,0.000111627
3.7547e-08,1.11776e-07,0.000111776
3.7637e-08,1.1192399999999999e-07,0.000111924
3.7727e-08,1.1207100000000001e-07,0.000112071
3.77495e-08,1.1210800000000001e-07,0.000112108
3.77832e-08,1.1216300000000001e-07,0.000112163
3.78338e-08,1.1205e-07,0.00011205
3.79098e-08,1.1235699999999999e-07,0.000112357
3.79323e-08,1.12341e-07,0.000112341
3.7966e-08,1.1241700000000001e-07,0.000112417
3.80166e-08,1.1225500000000001e-07,0.000112255
3.80926e-08,1.12551e-07,0.000112551
3.81826e-08,1.12728e-07,0.000112728
3.82726e-08,1.12928e-07,0.000112928
3.83626e-08,1.13111e-07,0.000113111
3.84526e-08,1.1328e-07,0.00011328
3.85426e-08,1.13442e-07,0.000113442
3.86326e-08,1.1359700000000001e-07,0.000113597
3.87226e-08,1.1374699999999999e-07,0.000113747
3.88126e-08,1.13894e-07,0.000113894
3.89026e-08,1.1403799999999999e-07,0.000114038
3.89926e-08,1.14181e-07,0.000114181
3.90826e-08,1.14322e-07,0.000114322
3.91726e-08,1.1446200000000001e-07,0.000114462
3.92626e-08,1.14601e-07,0.000114601
3.93526e-08,1.1474000000000001e-07,0.00011474
3.94426e-08,1.14877e-07,0.000114877
3.95326e-08,1.15014e-07,0.000115014
3.96226e-08,1.15151e-07,0.000115151
3.97126e-08,1.1528699999999999e-07,0.000115287
3.98026e-08,1.15423e-07,0.000115423
3.98926e-08,1.15558e-07,0.000115558
3.99826e-08,1.15692e-07,0.000115692
4.00726e-08,1.1582600000000001e-07,0.000115826
4.01626e-08,1.1596e-07,0.00011596
4.02526e-08,1.16093e-07,0.000116093
4.03426e-08,1.16226e-07,0.000116226
4.04326e-08,1.16359e-07,0.000116359
4.05226e-08,1.1649100000000001e-07,0.000116491
4.06126e-08,1.16623e-07,0.000116623
4.07026e-08,1.16755e-07,0.000116755
4.07926e-08,1.16848e-07,0.000116848
4.08826e-08,1.17001e-07,0.000117001
4.09726e-08,1.17142e-07,0.000117142
4.10626e-08,1.17279e-07,0.000117279
4.11526e-08,1.17414e-07,0.000117414
4.12426e-08,1.1754700000000001e-07,0.000117547
4.13326e-08,1.17679e-07,0.000117679
4.14226e-08,1.1781000000000001e-07,0.00011781
4.15126e-08,1.17941e-07,0.000117941
4.16026e-08,1.18071e-07,0.000118071
4.16926e-08,1.18201e-07,0.000118201
4.17826e-08,1.18331e-07,0.000118331
4.18726e-08,1.18461e-07,0.000118461
4.19626e-08,1.1859e-07,0.00011859
4.20526e-08,1.18718e-07,0.000118718
4.21426e-08,1.1884699999999999e-07,0.000118847
4.22326e-08,1.18975e-07,0.000118975
4.23226e-08,1.19103e-07,0.000119103
4.24126e-08,1.1923e-07,0.00011923
4.25026e-08,1.19358e-07,0.000119358
4.25926e-08,1.1948600000000002e-07,0.000119486
4.26826e-08,1.19614e-07,0.000119614
4.27726e-08,1.1974200000000001e-07,0.000119742
4.28626e-08,1.1987e-07,0.00011987
4.29526e-08,1.1999800000000001e-07,0.000119998
4.30426e-08,1.20125e-07,0.000120125
4.31326e-08,1.20252e-07,0.000120252
4.32226e-08,1.2037800000000002e-07,0.000120378
4.33126e-08,1.20505e-07,0.000120505
4.34026e-08,1.2063100000000002e-07,0.000120631
4.34926e-08,1.20758e-07,0.000120758
4.35826e-08,1.20884e-07,0.000120884
4.36726e-08,1.2100900000000002e-07,0.000121009
4.37626e-08,1.21135e-07,0.000121135
4.38526e-08,1.2126100000000002e-07,0.000121261
4.39426e-08,1.21387e-07,0.000121387
4.40326e-08,1.21512e-07,0.000121512
4.41226e-08,1.21638e-07,0.000121638
4.42126e-08,1.21763e-07,0.000121763
4.43026e-08,1.2188900000000001e-07,0.000121889
4.43926e-08,1.22014e-07,0.000122014
4.44826e-08,1.2214e-07,0.00012214
4.45726e-08,1.2226500000000002e-07,0.000122265
4.46626e-08,1.22391e-07,0.000122391
4.47526e-08,1.2251699999999998e-07,0.000122517
4.48426e-08,1.22643e-07,0.000122643
4.49326e-08,1.22769e-07,0.000122769
4.50226e-08,1.2289500000000002e-07,0.000122895
4.51126e-08,1.23022e-07,0.000123022
4.52026e-08,1.23148e-07,0.000123148
4.52926e-08,1.2327400000000002e-07,0.000123274
4.53826e-08,1.23401e-07,0.000123401
