
                  X             Displacement          Force      

                0.                -0.                 0.         
                1.E-03           100.E-15             1.12305E-09
                2.E-03           200.E-15           705.781E-12  
                3.5E-03          350.E-15            70.4427E-12 
                5.75E-03         575.E-15             5.55354E-12
                9.125E-03        912.5E-15          545.344E-15  
               14.1875E-03         1.41875E-12       54.4662E-15 
               21.7812E-03         2.17813E-12        5.44649E-15
               33.1719E-03         3.31719E-12      544.604E-18  
               50.2578E-03         5.02578E-12       54.4593E-18 
               75.8867E-03         7.58867E-12        5.44559E-18
              114.33E-03          11.433E-12        544.533E-21  
              171.995E-03         17.1995E-12        54.4481E-21 
              258.493E-03         25.8493E-12         5.44419E-21
              388.239E-03         38.8239E-12       544.35E-24   
              582.859E-03         58.2859E-12        54.4247E-24 
              874.788E-03         87.4788E-12         5.44088E-24
                1.31268          131.268E-12        543.85E-27   
                1.96952          196.952E-12         54.3494E-27 
                2.76952          276.952E-12          5.43059E-27
                3.56952          356.952E-12        542.625E-30  
                4.36952          436.952E-12         54.219E-30  
                5.16952          516.952E-12          5.41756E-30
                5.96952          596.952E-12        541.322E-33  
                6.76952          676.952E-12         54.0888E-33 
                7.56952          756.952E-12          5.40453E-33
                8.36952          836.952E-12        540.019E-36  
                9.16952          916.952E-12         53.9585E-36 
                9.96952          996.952E-12        411.121E-09  
               10.7695             1.07695E-09        1.16265E-06
               11.5695             1.15695E-09        1.91359E-06
               12.3695             1.23695E-09        2.57891E-06
               13.1695             1.31695E-09        3.07985E-06
               13.9695             1.39695E-09        3.41834E-06
               14.7695             1.47695E-09        3.70245E-06
               15.5695             1.55695E-09        3.95383E-06
               16.3695             1.63695E-09        4.17431E-06
               17.1695             1.71695E-09        4.3714E-06 
               17.9695             1.79695E-09        4.55216E-06
               18.7695             1.87695E-09        4.7215E-06 
               19.5695             1.95695E-09        4.88308E-06
               20.3695             2.03695E-09        5.0391E-06 
               21.1695             2.11695E-09        5.19012E-06
               21.9695             2.19695E-09        5.33653E-06
               22.7695             2.27695E-09        5.47867E-06
               23.5695             2.35695E-09        5.61654E-06
               24.3695             2.43695E-09        5.75005E-06
               25.1695             2.51695E-09        5.8789E-06 
               25.9695             2.59695E-09        6.00302E-06
               26.7695             2.67695E-09        6.12239E-06
               27.5695             2.75695E-09        6.23712E-06
               28.3695             2.83695E-09        6.3471E-06 
               29.1695             2.91695E-09        6.45237E-06
               29.9695             2.99695E-09        6.55294E-06
               30.7695             3.07695E-09        6.64894E-06
               31.5695             3.15695E-09        6.74058E-06
               32.3695             3.23695E-09        6.82824E-06
               33.1695             3.31695E-09        6.91234E-06
               33.9695             3.39695E-09        6.99331E-06
               34.7695             3.47695E-09        7.07146E-06
               35.5695             3.55695E-09        7.14701E-06
               36.3695             3.63695E-09        7.22008E-06
               37.1695             3.71695E-09        7.2908E-06 
               37.9695             3.79695E-09        7.35931E-06
               38.7695             3.87695E-09        7.42577E-06
               39.5695             3.95695E-09        7.49035E-06
               40.3695             4.03695E-09        7.5532E-06 
               41.1695             4.11695E-09        7.61445E-06
               41.9695             4.19695E-09        7.67419E-06
               42.7695             4.27695E-09        7.7325E-06 
               43.5695             4.35695E-09        7.78944E-06
               44.3695             4.43695E-09        7.84508E-06
               45.1695             4.51695E-09        7.89949E-06
               45.9695             4.59695E-09        7.95273E-06
               46.7695             4.67695E-09        8.00486E-06
               47.5695             4.75695E-09        8.05595E-06
               48.3695             4.83695E-09        8.10605E-06
               49.1695             4.91695E-09        8.15518E-06
               49.9695             4.99695E-09        8.2034E-06 
               50.7695             5.07695E-09        8.25074E-06
               51.5695             5.15695E-09        8.29722E-06
               52.3695             5.23695E-09        8.34288E-06
               53.1695             5.31695E-09        8.38776E-06
               53.9695             5.39695E-09        8.43189E-06
               54.7695             5.47695E-09        8.47529E-06
               55.5695             5.55695E-09        8.51801E-06
               56.3695             5.63695E-09        8.56006E-06
               57.1695             5.71695E-09        8.60147E-06
               57.9695             5.79695E-09        8.64227E-06
               58.7695             5.87695E-09        8.68248E-06
               59.5695             5.95695E-09        8.72211E-06
               60.3695             6.03695E-09        9.07756E-06
               61.1695             6.11695E-09        9.83905E-06
               61.9695             6.19695E-09       10.7836E-06 
               62.7695             6.27695E-09       11.6733E-06 
               63.5695             6.35695E-09       12.7278E-06 
               64.3695             6.43695E-09       14.0172E-06 
               65.1695             6.51695E-09       15.196E-06  
               65.9695             6.59695E-09       16.2558E-06 
               66.7695             6.67695E-09       17.2002E-06 
               67.5695             6.75695E-09       18.0398E-06 
               68.3695             6.83695E-09       18.7946E-06 
               69.1695             6.91695E-09       19.47E-06   
               69.9695             6.99695E-09       20.0749E-06 
               70.7695             7.07695E-09       20.6212E-06 
               71.5695             7.15695E-09       21.1164E-06 
               72.3695             7.23695E-09       21.5703E-06 
               73.1695             7.31695E-09       21.9926E-06 
               73.9695             7.39695E-09       22.3904E-06 
               74.7695             7.47695E-09       22.7682E-06 
               75.5695             7.55695E-09       23.1288E-06 
               76.3695             7.63695E-09       23.4732E-06 
               77.1695             7.71695E-09       23.8018E-06 
               77.9695             7.79695E-09       24.1157E-06 
               78.7695             7.87695E-09       24.4155E-06 
               79.5695             7.95695E-09       24.7018E-06 
               80.3695             8.03695E-09       24.9752E-06 
               81.1695             8.11695E-09       25.237E-06  
               81.9695             8.19695E-09       25.4887E-06 
               82.7695             8.27695E-09       25.7312E-06 
               83.5695             8.35695E-09       25.9653E-06 
               84.3695             8.43695E-09       26.1919E-06 
               85.1695             8.51695E-09       26.4116E-06 
               85.9695             8.59695E-09       26.6249E-06 
               86.7695             8.67695E-09       26.8321E-06 
               87.5695             8.75695E-09       27.0335E-06 
               88.3695             8.83695E-09       27.2295E-06 
               89.1695             8.91695E-09       27.4204E-06 
               89.9695             8.99695E-09       27.6065E-06 
               90.7695             9.07695E-09       27.7881E-06 
               91.5695             9.15695E-09       27.9655E-06 
               92.3695             9.23695E-09       28.1389E-06 
               93.1695             9.31695E-09       28.3086E-06 
               93.9695             9.39695E-09       28.4747E-06 
               94.7695             9.47695E-09       28.6375E-06 
               95.5695             9.55695E-09       28.797E-06  
               96.3695             9.63695E-09       28.9536E-06 
               97.1695             9.71695E-09       29.1072E-06 
               97.9695             9.79695E-09       29.2581E-06 
               98.7695             9.87695E-09       29.4063E-06 
               99.5695             9.95695E-09       29.5521E-06 
              100.37              10.037E-09         29.6954E-06 
              101.17              10.117E-09         29.8364E-06 
              101.97              10.197E-09         29.9751E-06 
              102.77              10.277E-09         30.1116E-06 
              103.57              10.357E-09         30.2462E-06 
              104.37              10.437E-09         30.3787E-06 
              105.17              10.517E-09         30.5094E-06 
              105.97              10.597E-09         30.6383E-06 
              106.77              10.677E-09         30.7654E-06 
              107.57              10.757E-09         30.8908E-06 
              108.37              10.837E-09         31.0147E-06 
              109.17              10.917E-09         31.1369E-06 
              109.97              10.997E-09         31.2577E-06 
              110.77              11.077E-09         31.377E-06  
              111.57              11.157E-09         31.4948E-06 
              112.37              11.237E-09         31.6113E-06 
              113.17              11.317E-09         31.7265E-06 
              113.97              11.397E-09         31.8404E-06 
              114.77              11.477E-09         31.953E-06  
              115.57              11.557E-09         32.0644E-06 
              116.37              11.637E-09         32.1746E-06 
              117.17              11.717E-09         32.2837E-06 
              117.97              11.797E-09         32.3917E-06 
              118.77              11.877E-09         32.4985E-06 
              119.57              11.957E-09         32.8265E-06 
              120.37              12.037E-09         33.3493E-06 
              121.17              12.117E-09         33.821E-06  
              121.97              12.197E-09         34.2468E-06 
              122.77              12.277E-09         34.7903E-06 
              123.57              12.357E-09         35.5308E-06 
              124.37              12.437E-09         36.3221E-06 
              125.17              12.517E-09         37.0475E-06 
              125.97              12.597E-09         37.7143E-06 
              126.77              12.677E-09         38.3281E-06 
              127.57              12.757E-09         38.8961E-06 
              128.37              12.837E-09         39.4256E-06 
              129.17              12.917E-09         39.918E-06  
              129.97              12.997E-09         40.3666E-06 
              130.77              13.077E-09         40.773E-06  
              131.57              13.157E-09         41.1471E-06 
              132.37              13.237E-09         41.4958E-06 
              133.17              13.317E-09         41.8227E-06 
              133.97              13.397E-09         42.1317E-06 
              134.77              13.477E-09         42.4257E-06 
              135.57              13.557E-09         42.7065E-06 
              136.37              13.637E-09         42.9749E-06 
              137.17              13.717E-09         43.2316E-06 
              137.97              13.797E-09         43.4776E-06 
              138.77              13.877E-09         43.7137E-06 
              139.57              13.957E-09         43.9409E-06 
              140.37              14.037E-09         44.1603E-06 
              141.17              14.117E-09         44.3726E-06 
              141.97              14.197E-09         44.5789E-06 
              142.77              14.277E-09         44.7795E-06 
              143.57              14.357E-09         44.9748E-06 
              144.37              14.437E-09         45.1651E-06 
              145.17              14.517E-09         45.3506E-06 
              145.97              14.597E-09         45.5318E-06 
              146.77              14.677E-09         45.7091E-06 
              147.57              14.757E-09         45.8829E-06 
              148.37              14.837E-09         46.0534E-06 
              149.17              14.917E-09         46.221E-06  
              149.97              14.997E-09         46.3859E-06 
              150.77              15.077E-09         46.5483E-06 
              151.57              15.157E-09         46.7082E-06 
              152.37              15.237E-09         46.8658E-06 
              153.17              15.317E-09         47.0212E-06 
              153.97              15.397E-09         47.1746E-06 
              154.77              15.477E-09         47.3261E-06 
              155.57              15.557E-09         47.4758E-06 
              156.37              15.637E-09         47.6237E-06 
              157.17              15.717E-09         47.77E-06   
              157.97              15.797E-09         47.9148E-06 
              158.77              15.877E-09         48.058E-06  
              159.57              15.957E-09         48.1997E-06 
              160.37              16.037E-09         48.34E-06   
              161.17              16.117E-09         48.4789E-06 
              161.97              16.197E-09         48.6166E-06 
              162.77              16.277E-09         48.753E-06  
              163.57              16.357E-09         48.8882E-06 
              164.37              16.437E-09         49.0222E-06 
              165.17              16.517E-09         49.1549E-06 
              165.97              16.597E-09         49.2864E-06 
              166.77              16.677E-09         49.4168E-06 
              167.57              16.757E-09         49.546E-06  
              168.37              16.837E-09         49.674E-06  
              169.17              16.917E-09         49.8008E-06 
              169.97              16.997E-09         49.9265E-06 
              170.77              17.077E-09         50.051E-06  
              171.57              17.157E-09         50.1744E-06 
              172.37              17.237E-09         50.2968E-06 
              173.17              17.317E-09         50.4181E-06 
              173.97              17.397E-09         50.5384E-06 
              174.77              17.477E-09         50.6577E-06 
              175.57              17.557E-09         50.776E-06  
              176.37              17.637E-09         50.8935E-06 
              177.17              17.717E-09         51.0101E-06 
              177.97              17.797E-09         51.126E-06  
              178.77              17.877E-09         51.2412E-06 
              179.57              17.957E-09         51.3556E-06 
              180.37              18.037E-09         51.4691E-06 
              181.17              18.117E-09         51.5819E-06 
              181.97              18.197E-09         51.6938E-06 
              182.77              18.277E-09         51.805E-06  
              183.57              18.357E-09         51.9154E-06 
              184.37              18.437E-09         52.0252E-06 
              185.17              18.517E-09         52.1343E-06 
              185.97              18.597E-09         52.2429E-06 
              186.77              18.677E-09         52.3508E-06 
              187.57              18.757E-09         52.458E-06  
              188.37              18.837E-09         52.5647E-06 
              189.17              18.917E-09         52.6706E-06 
              189.97              18.997E-09         52.776E-06  
              190.77              19.077E-09         52.8808E-06 
              191.57              19.157E-09         52.9851E-06 
              192.37              19.237E-09         53.0889E-06 
              193.17              19.317E-09         53.192E-06  
              193.97              19.397E-09         53.2946E-06 
              194.77              19.477E-09         53.3967E-06 
              195.57              19.557E-09         53.4982E-06 
              196.37              19.637E-09         53.5993E-06 
              197.17              19.717E-09         53.6999E-06 
              197.97              19.797E-09         53.8001E-06 
              198.77              19.877E-09         53.8997E-06 
              199.57              19.957E-09         53.9988E-06 
              200.37              20.037E-09         54.0974E-06 
              201.17              20.117E-09         54.1956E-06 
              201.97              20.197E-09         54.2934E-06 
              202.77              20.277E-09         54.3905E-06 
              203.57              20.357E-09         54.4872E-06 
              204.37              20.437E-09         54.5834E-06 
              205.17              20.517E-09         54.6791E-06 
              205.97              20.597E-09         54.7743E-06 
              206.77              20.677E-09         54.8691E-06 
              207.57              20.757E-09         54.9635E-06 
              208.37              20.837E-09         55.0574E-06 
              209.17              20.917E-09         55.151E-06  
              209.97              20.997E-09         55.2441E-06 
              210.77              21.077E-09         55.3368E-06 
              211.57              21.157E-09         55.4291E-06 
              212.37              21.237E-09         55.521E-06  
              213.17              21.317E-09         55.6126E-06 
              213.97              21.397E-09         55.7038E-06 
              214.77              21.477E-09         55.7946E-06 
              215.57              21.557E-09         55.8851E-06 
              216.37              21.637E-09         55.9752E-06 
              217.17              21.717E-09         56.0649E-06 
              217.97              21.797E-09         56.1544E-06 
              218.77              21.877E-09         56.2434E-06 
              219.57              21.957E-09         56.3322E-06 
              220.37              22.037E-09         56.4205E-06 
              221.17              22.117E-09         56.5086E-06 
              221.97              22.197E-09         56.5963E-06 
              222.77              22.277E-09         56.6836E-06 
              223.57              22.357E-09         56.7705E-06 
              224.37              22.437E-09         56.857E-06  
              225.17              22.517E-09         56.9433E-06 
              225.97              22.597E-09         57.0292E-06 
              226.77              22.677E-09         57.1149E-06 
              227.57              22.757E-09         57.2001E-06 
              228.37              22.837E-09         57.2851E-06 
