
                  X             Displacement          Force      

                0.                -0.                 0.         
                1.E-03           100.E-15             1.12305E-09
                2.E-03           200.E-15           705.781E-12  
                3.5E-03          350.E-15            70.4427E-12 
                5.75E-03         575.E-15             5.55354E-12
                9.125E-03        912.5E-15          545.344E-15  
               14.1875E-03         1.41875E-12       54.4662E-15 
               21.7812E-03         2.17813E-12        5.44649E-15
               33.1719E-03         3.31719E-12      544.604E-18  
               50.2578E-03         5.02578E-12       54.4593E-18 
               75.8867E-03         7.58867E-12        5.44559E-18
              114.33E-03          11.433E-12        544.533E-21  
              171.995E-03         17.1995E-12        54.4481E-21 
              258.493E-03         25.8493E-12         5.44419E-21
              388.239E-03         38.8239E-12       544.35E-24   
              582.859E-03         58.2859E-12        54.4247E-24 
              874.788E-03         87.4788E-12         5.44088E-24
                1.31268          131.268E-12        543.85E-27   
                1.96952          196.952E-12         54.3494E-27 
                2.76952          276.952E-12          5.43059E-27
                3.56952          356.952E-12        542.625E-30  
                4.36952          436.952E-12         54.219E-30  
                5.16952          516.952E-12          5.41756E-30
                5.96952          596.952E-12        541.322E-33  
                6.76952          676.952E-12         54.0888E-33 
                7.56952          756.952E-12          5.40453E-33
                8.36952          836.952E-12        540.019E-36  
                9.16952          916.952E-12         53.9585E-36 
                9.96952          996.952E-12        411.121E-09  
               10.7695             1.07695E-09        1.16262E-06
               11.1695             1.11695E-09        1.52134E-06
               11.7695             1.17695E-09        1.98582E-06
               12.1695             1.21695E-09        2.2115E-06 
               12.7695             1.27695E-09        2.47814E-06
               13.5695             1.35695E-09        2.79962E-06
               14.3695             1.43695E-09        3.07956E-06
               15.1695             1.51695E-09        3.33292E-06
               15.9695             1.59695E-09        3.56912E-06
               16.7695             1.67695E-09        3.79228E-06
               17.5695             1.75695E-09        4.00461E-06
               18.3695             1.83695E-09        4.20759E-06
               19.1695             1.91695E-09        4.40206E-06
               19.9695             1.99695E-09        4.58789E-06
               20.7695             2.07695E-09        4.7645E-06 
               21.5695             2.15695E-09        4.93177E-06
               22.3695             2.23695E-09        5.0899E-06 
               23.1695             2.31695E-09        5.23927E-06
               23.9695             2.39695E-09        5.3801E-06 
               24.7695             2.47695E-09        5.51288E-06
               25.5695             2.55695E-09        5.6382E-06 
               26.3695             2.63695E-09        5.75674E-06
               27.1695             2.71695E-09        5.86917E-06
               27.9695             2.79695E-09        5.9761E-06 
               28.7695             2.87695E-09        6.07808E-06
               29.5695             2.95695E-09        6.17558E-06
               30.3695             3.03695E-09        6.26898E-06
               31.1695             3.11695E-09        6.35859E-06
               31.9695             3.19695E-09        6.44466E-06
               32.7695             3.27695E-09        6.52743E-06
               33.5695             3.35695E-09        6.60711E-06
               34.3695             3.43695E-09        6.68392E-06
               35.1695             3.51695E-09        6.75809E-06
               35.9695             3.59695E-09        6.82977E-06
               36.7695             3.67695E-09        6.89911E-06
               37.5695             3.75695E-09        6.96622E-06
               38.3695             3.83695E-09        7.0312E-06 
               39.1695             3.91695E-09        7.09417E-06
               39.9695             3.99695E-09        7.15523E-06
               40.7695             4.07695E-09        7.21442E-06
               41.5695             4.15695E-09        7.27185E-06
               42.3695             4.23695E-09        7.32767E-06
               43.1695             4.31695E-09        7.38191E-06
               43.9695             4.39695E-09        7.43468E-06
               44.7695             4.47695E-09        7.486E-06  
               45.5695             4.55695E-09        7.53601E-06
               46.3695             4.63695E-09        7.58475E-06
               47.1695             4.71695E-09        7.63228E-06
               47.9695             4.79695E-09        7.67851E-06
               48.7695             4.87695E-09        7.72328E-06
               49.5695             4.95695E-09        7.76687E-06
               50.3695             5.03695E-09        7.80935E-06
               51.1695             5.11695E-09        7.85078E-06
               51.9695             5.19695E-09        7.89121E-06
               52.7695             5.27695E-09        7.93077E-06
               53.5695             5.35695E-09        7.96948E-06
               54.3695             5.43695E-09        8.00733E-06
               55.1695             5.51695E-09        8.04441E-06
               55.9695             5.59695E-09        8.08068E-06
               56.7695             5.67695E-09        8.11616E-06
               57.5695             5.75695E-09        8.15098E-06
               58.3695             5.83695E-09        8.18509E-06
               59.1695             5.91695E-09        8.21858E-06
               59.9695             5.99695E-09        8.26716E-06
               60.7695             6.07695E-09        8.79382E-06
               61.5695             6.15695E-09        9.53145E-06
               62.3695             6.23695E-09       10.4255E-06 
               63.1695             6.31695E-09       11.251E-06  
               63.9695             6.39695E-09       12.0876E-06 
               64.7695             6.47695E-09       13.1917E-06 
               65.5695             6.55695E-09       14.2381E-06 
               66.3695             6.63695E-09       15.1687E-06 
               67.1695             6.71695E-09       16.0011E-06 
               67.9695             6.79695E-09       16.7499E-06 
               68.7695             6.87695E-09       17.4264E-06 
               69.5695             6.95695E-09       18.041E-06  
               70.3695             7.03695E-09       18.6036E-06 
               71.1695             7.11695E-09       19.1193E-06 
               71.9695             7.19695E-09       19.5921E-06 
               72.7695             7.27695E-09       20.0308E-06 
               73.5695             7.35695E-09       20.4432E-06 
               74.3695             7.43695E-09       20.834E-06  
               75.1695             7.51695E-09       21.2056E-06 
               75.9695             7.59695E-09       21.5594E-06 
               76.7695             7.67695E-09       21.8963E-06 
               77.5695             7.75695E-09       22.2177E-06 
               78.3695             7.83695E-09       22.5246E-06 
               79.1695             7.91695E-09       22.8178E-06 
               79.9695             7.99695E-09       23.0982E-06 
               80.7695             8.07695E-09       23.3669E-06 
               81.5695             8.15695E-09       23.6247E-06 
               82.3695             8.23695E-09       23.8729E-06 
               83.1695             8.31695E-09       24.1122E-06 
               83.9695             8.39695E-09       24.3435E-06 
               84.7695             8.47695E-09       24.5674E-06 
               85.5695             8.55695E-09       24.7845E-06 
               86.3695             8.63695E-09       24.995E-06  
               87.1695             8.71695E-09       25.1992E-06 
               87.9695             8.79695E-09       25.3975E-06 
               88.7695             8.87695E-09       25.5902E-06 
               89.5695             8.95695E-09       25.7777E-06 
               90.3695             9.03695E-09       25.9603E-06 
               91.1695             9.11695E-09       26.1383E-06 
               91.9695             9.19695E-09       26.3119E-06 
               92.7695             9.27695E-09       26.4814E-06 
               93.5695             9.35695E-09       26.6469E-06 
               94.3695             9.43695E-09       26.8086E-06 
               95.1695             9.51695E-09       26.9667E-06 
               95.9695             9.59695E-09       27.1213E-06 
               96.7695             9.67695E-09       27.2726E-06 
               97.5695             9.75695E-09       27.4207E-06 
               98.3695             9.83695E-09       27.5657E-06 
               99.1695             9.91695E-09       27.7076E-06 
               99.9695             9.99695E-09       27.8466E-06 
              100.77              10.077E-09         27.9829E-06 
              101.57              10.157E-09         28.1166E-06 
              102.37              10.237E-09         28.2477E-06 
              103.17              10.317E-09         28.3764E-06 
              103.97              10.397E-09         28.5027E-06 
              104.77              10.477E-09         28.6268E-06 
              105.57              10.557E-09         28.7487E-06 
              106.37              10.637E-09         28.8684E-06 
              107.17              10.717E-09         28.9861E-06 
              107.97              10.797E-09         29.1019E-06 
              108.77              10.877E-09         29.2158E-06 
              109.57              10.957E-09         29.3278E-06 
              110.37              11.037E-09         29.4382E-06 
              111.17              11.117E-09         29.547E-06  
              111.97              11.197E-09         29.6542E-06 
              112.77              11.277E-09         29.7598E-06 
              113.57              11.357E-09         29.864E-06  
              114.37              11.437E-09         29.9667E-06 
              115.17              11.517E-09         30.0678E-06 
              115.97              11.597E-09         30.1676E-06 
              116.77              11.677E-09         30.266E-06  
              117.57              11.757E-09         30.3632E-06 
              118.37              11.837E-09         30.459E-06  
              119.17              11.917E-09         30.5536E-06 
              119.97              11.997E-09         30.6471E-06 
              120.77              12.077E-09         30.7393E-06 
              121.57              12.157E-09         31.0517E-06 
              122.37              12.237E-09         31.3951E-06 
              123.17              12.317E-09         31.8559E-06 
              123.97              12.397E-09         32.2688E-06 
              124.77              12.477E-09         32.7316E-06 
              125.57              12.557E-09         33.4895E-06 
              126.37              12.637E-09         34.2559E-06 
              127.17              12.717E-09         34.9625E-06 
              127.97              12.797E-09         35.6116E-06 
              128.77              12.877E-09         36.2078E-06 
              129.57              12.957E-09         36.7598E-06 
              130.37              13.037E-09         37.275E-06  
              131.17              13.117E-09         37.7545E-06 
              131.97              13.197E-09         38.1906E-06 
              132.77              13.277E-09         38.5839E-06 
              133.57              13.357E-09         38.9447E-06 
              134.37              13.437E-09         39.2815E-06 
              135.17              13.517E-09         39.5979E-06 
              135.97              13.597E-09         39.8965E-06 
              136.77              13.677E-09         40.1796E-06 
              137.57              13.757E-09         40.4485E-06 
              138.37              13.837E-09         40.7047E-06 
              139.17              13.917E-09         40.9495E-06 
              139.97              13.997E-09         41.1842E-06 
              140.77              14.077E-09         41.4095E-06 
              141.57              14.157E-09         41.6262E-06 
              142.37              14.237E-09         41.8347E-06 
              143.17              14.317E-09         42.0356E-06 
              143.97              14.397E-09         42.2296E-06 
              144.77              14.477E-09         42.4172E-06 
              145.57              14.557E-09         42.5991E-06 
              146.37              14.637E-09         42.7757E-06 
              147.17              14.717E-09         42.9476E-06 
              147.97              14.797E-09         43.1154E-06 
              148.77              14.877E-09         43.2794E-06 
              149.57              14.957E-09         43.4398E-06 
              150.37              15.037E-09         43.597E-06  
              151.17              15.117E-09         43.7511E-06 
              151.97              15.197E-09         43.9024E-06 
              152.77              15.277E-09         44.0511E-06 
              153.57              15.357E-09         44.1972E-06 
              154.37              15.437E-09         44.3409E-06 
              155.17              15.517E-09         44.4825E-06 
              155.97              15.597E-09         44.6219E-06 
              156.77              15.677E-09         44.7593E-06 
              157.57              15.757E-09         44.8947E-06 
              158.37              15.837E-09         45.0285E-06 
              159.17              15.917E-09         45.1605E-06 
              159.97              15.997E-09         45.2908E-06 
              160.77              16.077E-09         45.4195E-06 
              161.57              16.157E-09         45.5466E-06 
              162.37              16.237E-09         45.6721E-06 
              163.17              16.317E-09         45.7962E-06 
              163.97              16.397E-09         45.9189E-06 
              164.77              16.477E-09         46.0401E-06 
              165.57              16.557E-09         46.1598E-06 
              166.37              16.637E-09         46.278E-06  
              167.17              16.717E-09         46.395E-06  
              167.97              16.797E-09         46.5107E-06 
              168.77              16.877E-09         46.6251E-06 
              169.57              16.957E-09         46.7383E-06 
              170.37              17.037E-09         46.8504E-06 
              171.17              17.117E-09         46.9614E-06 
              171.97              17.197E-09         47.0714E-06 
              172.77              17.277E-09         47.1802E-06 
              173.57              17.357E-09         47.288E-06  
              174.37              17.437E-09         47.3947E-06 
              175.17              17.517E-09         47.5004E-06 
              175.97              17.597E-09         47.605E-06  
              176.77              17.677E-09         47.7085E-06 
              177.57              17.757E-09         47.8109E-06 
              178.37              17.837E-09         47.9124E-06 
              179.17              17.917E-09         48.013E-06  
              179.97              17.997E-09         48.1128E-06 
              180.77              18.077E-09         48.212E-06  
              181.57              18.157E-09         48.3103E-06 
              182.37              18.237E-09         48.4079E-06 
              183.17              18.317E-09         48.5046E-06 
              183.97              18.397E-09         48.6006E-06 
              184.77              18.477E-09         48.6957E-06 
              185.57              18.557E-09         48.7902E-06 
              186.37              18.637E-09         48.8839E-06 
              187.17              18.717E-09         48.977E-06  
              187.97              18.797E-09         49.0696E-06 
              188.77              18.877E-09         49.1615E-06 
              189.57              18.957E-09         49.2528E-06 
              190.37              19.037E-09         49.3435E-06 
              191.17              19.117E-09         49.4337E-06 
              191.97              19.197E-09         49.5233E-06 
              192.77              19.277E-09         49.6125E-06 
              193.57              19.357E-09         49.7011E-06 
              194.37              19.437E-09         49.7892E-06 
              195.17              19.517E-09         49.8768E-06 
              195.97              19.597E-09         49.9638E-06 
              196.77              19.677E-09         50.0504E-06 
              197.57              19.757E-09         50.1364E-06 
              198.37              19.837E-09         50.222E-06  
              199.17              19.917E-09         50.3072E-06 
              199.97              19.997E-09         50.3919E-06 
              200.77              20.077E-09         50.4762E-06 
              201.57              20.157E-09         50.5598E-06 
              202.37              20.237E-09         50.6429E-06 
              203.17              20.317E-09         50.7256E-06 
              203.97              20.397E-09         50.8079E-06 
              204.77              20.477E-09         50.8897E-06 
              205.57              20.557E-09         50.971E-06  
              206.37              20.637E-09         51.0517E-06 
              207.17              20.717E-09         51.1319E-06 
              207.97              20.797E-09         51.2116E-06 
              208.77              20.877E-09         51.291E-06  
              209.57              20.957E-09         51.3699E-06 
              210.37              21.037E-09         51.4484E-06 
              211.17              21.117E-09         51.5265E-06 
              211.97              21.197E-09         51.6043E-06 
              212.77              21.277E-09         51.6818E-06 
              213.57              21.357E-09         51.7588E-06 
              214.37              21.437E-09         51.8356E-06 
              215.17              21.517E-09         51.912E-06  
              215.97              21.597E-09         51.9881E-06 
              216.77              21.677E-09         52.0639E-06 
              217.57              21.757E-09         52.1394E-06 
              218.37              21.837E-09         52.2145E-06 
              219.17              21.917E-09         52.2893E-06 
              219.97              21.997E-09         52.3638E-06 
              220.77              22.077E-09         52.4379E-06 
              221.57              22.157E-09         52.5117E-06 
              222.37              22.237E-09         52.5852E-06 
              223.17              22.317E-09         52.6585E-06 
              223.97              22.397E-09         52.7314E-06 
              224.77              22.477E-09         52.8042E-06 
              225.57              22.557E-09         52.8766E-06 
              226.37              22.637E-09         52.9487E-06 
              227.17              22.717E-09         53.0203E-06 
