
                  X             Displacement          Force      

                0.                -0.                 0.         
                1.E-03           100.E-15             1.08566E-09
                2.E-03           200.E-15           679.41E-12   
                3.5E-03          350.E-15            67.6342E-12 
                5.75E-03         575.E-15             5.33598E-12
                9.125E-03        912.5E-15          524.07E-15   
               14.1875E-03         1.41875E-12       52.3466E-15 
               21.7812E-03         2.17813E-12        5.23341E-15
               33.1719E-03         3.31719E-12      523.388E-18  
               50.2578E-03         5.02578E-12       52.3371E-18 
               75.8867E-03         7.58867E-12        5.23344E-18
              114.33E-03          11.433E-12        523.285E-21  
              171.995E-03         17.1995E-12        52.3247E-21 
              258.493E-03         25.8493E-12         5.23194E-21
              388.239E-03         38.8239E-12       523.123E-24  
              582.859E-03         58.2859E-12        52.302E-24  
              874.788E-03         87.4788E-12         5.22867E-24
                1.31268          131.268E-12        522.639E-27  
                1.96952          196.952E-12         52.2296E-27 
                2.86952          286.952E-12          5.21827E-27
                3.76952          376.952E-12        521.357E-30  
                4.66952          466.952E-12         52.0888E-30 
                5.56952          556.952E-12          5.20418E-30
                6.46952          646.952E-12        519.949E-33  
                7.36952          736.952E-12         51.948E-33  
                8.26952          826.952E-12          5.19011E-33
                9.16952          916.952E-12        518.541E-36  
               10.0695             1.00695E-09      487.811E-09  
               10.9695             1.09695E-09        1.30415E-06
               11.4195             1.14195E-09        1.71042E-06
               12.0945             1.20945E-09        2.21128E-06
               12.9945             1.29945E-09        2.61529E-06
               13.8945             1.38945E-09        2.92989E-06
               14.7945             1.47945E-09        3.2038E-06 
               15.6945             1.56945E-09        3.44038E-06
               16.5945             1.65945E-09        3.65881E-06
               17.4945             1.74945E-09        3.86754E-06
               18.3945             1.83945E-09        4.06932E-06
               19.2945             1.92945E-09        4.26431E-06
               20.1945             2.01945E-09        4.45364E-06
               21.0945             2.10945E-09        4.63797E-06
               21.9945             2.19945E-09        4.81747E-06
               22.8945             2.28945E-09        4.99193E-06
               23.7945             2.37945E-09        5.16041E-06
               24.6945             2.46945E-09        5.32172E-06
               25.5945             2.55945E-09        5.47546E-06
               26.4945             2.64945E-09        5.62196E-06
               27.3945             2.73945E-09        5.76177E-06
               28.2945             2.82945E-09        5.89528E-06
               29.1945             2.91945E-09        6.02288E-06
               30.0945             3.00945E-09        6.14486E-06
               30.9945             3.09945E-09        6.26147E-06
               31.8945             3.18945E-09        6.37296E-06
               32.7945             3.27945E-09        6.47963E-06
               33.6945             3.36945E-09        6.58186E-06
               34.5945             3.45945E-09        6.68004E-06
               35.4945             3.54945E-09        6.77457E-06
               36.3945             3.63945E-09        6.86578E-06
               37.2945             3.72945E-09        6.95392E-06
               38.1945             3.81945E-09        7.03925E-06
               39.0945             3.90945E-09        7.12195E-06
               39.9945             3.99945E-09        7.20223E-06
               40.8945             4.08945E-09        7.28022E-06
               41.7945             4.17945E-09        7.35607E-06
               42.6945             4.26945E-09        7.42988E-06
               43.5945             4.35945E-09        7.50175E-06
               44.4945             4.44945E-09        7.57162E-06
               45.3945             4.53945E-09        7.63965E-06
               46.2945             4.62945E-09        7.70591E-06
               47.1945             4.71945E-09        7.77044E-06
               48.0945             4.80945E-09        7.83311E-06
               48.9945             4.89945E-09        7.8938E-06 
               49.8945             4.98945E-09        7.95286E-06
               50.7945             5.07945E-09        8.01053E-06
               51.6945             5.16945E-09        8.06698E-06
               52.5945             5.25945E-09        8.12224E-06
               53.4945             5.34945E-09        8.17641E-06
               54.3945             5.43945E-09        8.22955E-06
               55.2945             5.52945E-09        8.28169E-06
               56.1945             5.61945E-09        8.33289E-06
               57.0945             5.70945E-09        8.38318E-06
               57.9945             5.79945E-09        8.43239E-06
               58.8945             5.88945E-09        8.48057E-06
               59.7945             5.97945E-09        8.52771E-06
               60.6945             6.06945E-09        8.59794E-06
               61.5945             6.15945E-09        9.96907E-06
               62.4945             6.24945E-09       11.5712E-06 
               63.3945             6.33945E-09       13.0388E-06 
               64.2945             6.42945E-09       14.3845E-06 
               65.1945             6.51945E-09       15.5964E-06 
               66.0945             6.60945E-09       16.6758E-06 
               66.9945             6.69945E-09       17.6154E-06 
               67.8945             6.78945E-09       18.4262E-06 
               68.7945             6.87945E-09       19.1413E-06 
               69.6945             6.96945E-09       19.7786E-06 
               70.5945             7.05945E-09       20.3514E-06 
               71.4945             7.14945E-09       20.8734E-06 
               72.3945             7.23945E-09       21.3569E-06 
               73.2945             7.32945E-09       21.8103E-06 
               74.1945             7.41945E-09       22.2383E-06 
               75.0945             7.50945E-09       22.6438E-06 
               75.9945             7.59945E-09       23.0296E-06 
               76.8945             7.68945E-09       23.3982E-06 
               77.7945             7.77945E-09       23.7515E-06 
               78.6945             7.86945E-09       24.0906E-06 
               79.5945             7.95945E-09       24.4164E-06 
               80.4945             8.04945E-09       24.73E-06   
               81.3945             8.13945E-09       25.0324E-06 
               82.2945             8.22945E-09       25.3244E-06 
               83.1945             8.31945E-09       25.6071E-06 
               84.0945             8.40945E-09       25.8811E-06 
               84.9945             8.49945E-09       26.1471E-06 
               85.8945             8.58945E-09       26.4057E-06 
               86.7945             8.67945E-09       26.6573E-06 
               87.6945             8.76945E-09       26.9023E-06 
               88.5945             8.85945E-09       27.1411E-06 
               89.4945             8.94945E-09       27.3741E-06 
               90.3945             9.03945E-09       27.6014E-06 
               91.2945             9.12945E-09       27.8233E-06 
               92.1945             9.21945E-09       28.0401E-06 
               93.0945             9.30945E-09       28.2519E-06 
               93.9945             9.39945E-09       28.4592E-06 
               94.8945             9.48945E-09       28.662E-06  
               95.7945             9.57945E-09       28.8605E-06 
               96.6945             9.66945E-09       29.0548E-06 
               97.5945             9.75945E-09       29.2451E-06 
               98.4945             9.84945E-09       29.4315E-06 
               99.3945             9.93945E-09       29.6142E-06 
              100.295             10.0295E-09        29.7934E-06 
              101.195             10.1195E-09        29.9692E-06 
              102.095             10.2095E-09        30.1417E-06 
              102.995             10.2995E-09        30.311E-06  
              103.895             10.3895E-09        30.4771E-06 
              104.795             10.4795E-09        30.6401E-06 
              105.695             10.5695E-09        30.8003E-06 
              106.595             10.6595E-09        30.9577E-06 
              107.495             10.7495E-09        31.1127E-06 
              108.395             10.8395E-09        31.2652E-06 
              109.295             10.9295E-09        31.4153E-06 
              110.195             11.0195E-09        31.563E-06  
              111.095             11.1095E-09        31.7085E-06 
              111.995             11.1995E-09        31.8517E-06 
              112.895             11.2895E-09        31.9928E-06 
              113.795             11.3795E-09        32.1316E-06 
              114.695             11.4695E-09        32.2683E-06 
              115.595             11.5595E-09        32.403E-06  
              116.495             11.6495E-09        32.5357E-06 
              117.395             11.7395E-09        32.6667E-06 
              118.295             11.8295E-09        33.0753E-06 
              119.195             11.9195E-09        33.5395E-06 
              120.095             12.0095E-09        34.1592E-06 
              120.995             12.0995E-09        34.7246E-06 
              121.895             12.1895E-09        35.7518E-06 
              122.795             12.2795E-09        36.7253E-06 
              123.695             12.3695E-09        37.6147E-06 
              124.595             12.4595E-09        38.4089E-06 
              125.495             12.5495E-09        39.1142E-06 
              126.395             12.6395E-09        39.7474E-06 
              127.295             12.7295E-09        40.3197E-06 
              128.195             12.8195E-09        40.8421E-06 
              129.095             12.9095E-09        41.3237E-06 
              129.995             12.9995E-09        41.77E-06   
              130.895             13.0895E-09        42.1841E-06 
              131.795             13.1795E-09        42.5689E-06 
              132.695             13.2695E-09        42.9285E-06 
              133.595             13.3595E-09        43.267E-06  
              134.495             13.4495E-09        43.5871E-06 
              135.395             13.5395E-09        43.891E-06  
              136.295             13.6295E-09        44.1806E-06 
              137.195             13.7195E-09        44.4575E-06 
              138.095             13.8095E-09        44.7231E-06 
              138.995             13.8995E-09        44.9784E-06 
              139.895             13.9895E-09        45.2247E-06 
              140.795             14.0795E-09        45.463E-06  
              141.695             14.1695E-09        45.6944E-06 
              142.595             14.2595E-09        45.92E-06   
              143.495             14.3495E-09        46.1405E-06 
              144.395             14.4395E-09        46.3564E-06 
              145.295             14.5295E-09        46.568E-06  
              146.195             14.6195E-09        46.7758E-06 
              147.095             14.7095E-09        46.9799E-06 
              147.995             14.7995E-09        47.1806E-06 
              148.895             14.8895E-09        47.378E-06  
              149.795             14.9795E-09        47.5721E-06 
              150.695             15.0695E-09        47.7628E-06 
              151.595             15.1595E-09        47.9503E-06 
              152.495             15.2495E-09        48.1345E-06 
              153.395             15.3395E-09        48.3157E-06 
              154.295             15.4295E-09        48.494E-06  
              155.195             15.5195E-09        48.6697E-06 
              156.095             15.6095E-09        48.8431E-06 
              156.995             15.6995E-09        49.014E-06  
              157.895             15.7895E-09        49.1828E-06 
              158.795             15.8795E-09        49.3495E-06 
              159.695             15.9695E-09        49.5141E-06 
              160.595             16.0595E-09        49.6767E-06 
              161.495             16.1495E-09        49.8374E-06 
              162.395             16.2395E-09        49.9963E-06 
              163.295             16.3295E-09        50.1533E-06 
              164.195             16.4195E-09        50.3085E-06 
              165.095             16.5095E-09        50.4619E-06 
              165.995             16.5995E-09        50.6137E-06 
              166.895             16.6895E-09        50.7638E-06 
              167.795             16.7795E-09        50.9125E-06 
              168.695             16.8695E-09        51.0597E-06 
              169.595             16.9595E-09        51.2056E-06 
              170.495             17.0494E-09        51.3501E-06 
              171.395             17.1395E-09        51.4931E-06 
              172.295             17.2295E-09        51.6348E-06 
              173.195             17.3195E-09        51.775E-06  
              174.095             17.4095E-09        51.9138E-06 
              174.995             17.4995E-09        52.0513E-06 
              175.895             17.5895E-09        52.1875E-06 
              176.795             17.6795E-09        52.3225E-06 
              177.695             17.7695E-09        52.4563E-06 
              178.595             17.8595E-09        52.589E-06  
              179.495             17.9495E-09        52.7205E-06 
              180.395             18.0395E-09        52.851E-06  
              181.295             18.1295E-09        52.9804E-06 
              182.195             18.2195E-09        53.1089E-06 
              183.095             18.3095E-09        53.2363E-06 
              183.995             18.3995E-09        53.3629E-06 
              184.895             18.4895E-09        53.4884E-06 
              185.795             18.5795E-09        53.613E-06  
              186.695             18.6695E-09        53.7367E-06 
              187.595             18.7595E-09        53.8595E-06 
              188.495             18.8495E-09        53.9813E-06 
              189.395             18.9395E-09        54.1023E-06 
              190.295             19.0295E-09        54.2223E-06 
              191.195             19.1195E-09        54.3416E-06 
              192.095             19.2095E-09        54.46E-06   
              192.995             19.2995E-09        54.5776E-06 
              193.895             19.3895E-09        54.6946E-06 
              194.795             19.4795E-09        54.8109E-06 
              195.695             19.5695E-09        54.9265E-06 
              196.595             19.6595E-09        55.0415E-06 
              197.495             19.7495E-09        55.1558E-06 
              198.395             19.8395E-09        55.2696E-06 
              199.295             19.9295E-09        55.3827E-06 
              200.195             20.0195E-09        55.4953E-06 
              201.095             20.1095E-09        55.6074E-06 
              201.995             20.1995E-09        55.7189E-06 
              202.895             20.2895E-09        55.8299E-06 
              203.795             20.3795E-09        55.9404E-06 
              204.695             20.4695E-09        56.0504E-06 
              205.595             20.5595E-09        56.16E-06   
              206.495             20.6495E-09        56.2692E-06 
              207.395             20.7395E-09        56.3778E-06 
              208.295             20.8295E-09        56.486E-06  
              209.195             20.9195E-09        56.5936E-06 
              210.095             21.0095E-09        56.7009E-06 
              210.995             21.0995E-09        56.8078E-06 
              211.895             21.1895E-09        56.9142E-06 
              212.795             21.2795E-09        57.02E-06   
              213.695             21.3695E-09        57.1254E-06 
              214.595             21.4595E-09        57.2304E-06 
              215.495             21.5495E-09        57.3349E-06 
              216.395             21.6395E-09        57.4389E-06 
              217.295             21.7295E-09        57.5423E-06 
              218.195             21.8195E-09        57.6453E-06 
              219.095             21.9095E-09        57.7479E-06 
              219.995             21.9995E-09        57.85E-06   
              220.895             22.0895E-09        57.9519E-06 
              221.795             22.1795E-09        58.0533E-06 
              222.695             22.2695E-09        58.1546E-06 
              223.595             22.3595E-09        58.2555E-06 
              224.495             22.4495E-09        58.3561E-06 
              225.395             22.5395E-09        58.4564E-06 
              226.295             22.6295E-09        58.5564E-06 
              227.195             22.7195E-09        58.6561E-06 
              228.095             22.8095E-09        58.7556E-06 
              228.995             22.8995E-09        58.8548E-06 
              229.895             22.9895E-09        58.9537E-06 
              230.795             23.0795E-09        59.0522E-06 
              231.695             23.1695E-09        59.1505E-06 
              232.595             23.2595E-09        59.2486E-06 
              233.495             23.3495E-09        59.3465E-06 
              234.395             23.4395E-09        59.4442E-06 
              235.295             23.5295E-09        59.5416E-06 
              236.195             23.6195E-09        59.6389E-06 
              237.095             23.7095E-09        59.7361E-06 
              237.995             23.7995E-09        59.833E-06  
              238.895             23.8895E-09        59.9298E-06 
              239.795             23.9795E-09        60.0263E-06 
              240.695             24.0695E-09        60.4465E-06 
              241.595             24.1595E-09        60.9063E-06 
              242.495             24.2495E-09        61.347E-06  
              243.395             24.3395E-09        61.764E-06  
              244.295             24.4295E-09        62.1547E-06 
              245.195             24.5195E-09        62.518E-06  
              246.095             24.6095E-09        62.8542E-06 
              246.995             24.6995E-09        63.1667E-06 
              247.895             24.7895E-09        63.6642E-06 
              248.795             24.8795E-09        64.3006E-06 
              249.695             24.9695E-09        64.9122E-06 
              250.595             25.0595E-09        65.4965E-06 
              251.495             25.1495E-09        66.0497E-06 
              252.395             25.2395E-09        66.5654E-06 
              253.295             25.3295E-09        67.0451E-06 
              254.195             25.4195E-09        67.4885E-06 
              255.095             25.5095E-09        67.8891E-06 
              255.995             25.5995E-09        68.2524E-06 
