"displacement,mm","force,kN","force,N"
-0.0,0.0,0.0
1e-13,1.08566e-12,1.08566e-09
2e-13,6.7941e-13,6.7941e-10
3.5e-13,6.76342e-14,6.76342e-11
5.75e-13,5.3359799999999996e-15,5.33598e-12
9.125e-13,5.240700000000001e-16,5.2407e-13
1.41875e-12,5.23466e-17,5.23466e-14
2.17813e-12,5.23341e-18,5.23341e-15
3.31719e-12,5.23388e-19,5.23388e-16
5.02578e-12,5.2337100000000006e-20,5.23371e-17
7.58867e-12,5.23344e-21,5.23344e-18
1.1433e-11,5.23285e-22,5.23285e-19
1.71995e-11,5.23247e-23,5.23247e-20
2.58493e-11,5.231940000000001e-24,5.23194e-21
3.88239e-11,5.23123e-25,5.23123e-22
5.82859e-11,5.230200000000001e-26,5.2302e-23
8.74788e-11,5.2286699999999996e-27,5.22867e-24
1.31268e-10,5.22639e-28,5.22639e-25
1.96952e-10,5.22296e-29,5.22296e-26
2.86952e-10,5.2182700000000005e-30,5.21827e-27
3.76952e-10,5.21357e-31,5.21357e-28
4.66952e-10,5.20888e-32,5.20888e-29
5.56952e-10,5.20418e-33,5.20418e-30
6.46952e-10,5.19949e-34,5.19949e-31
7.36952e-10,5.1948e-35,5.1948e-32
8.26952e-10,5.1901100000000004e-36,5.19011e-33
9.16952e-10,5.18541e-37,5.18541e-34
1.00695e-09,4.87811e-10,4.87811e-07
1.09695e-09,1.3041600000000002e-09,1.30416e-06
1.18695e-09,2.1193799999999998e-09,2.11938e-06
1.27695e-09,2.70416e-09,2.70416e-06
1.36695e-09,3.0318e-09,3.0318e-06
1.45695e-09,3.30548e-09,3.30548e-06
1.54695e-09,3.5426900000000003e-09,3.54269e-06
1.63695e-09,3.74642e-09,3.74642e-06
1.72695e-09,3.9309e-09,3.9309e-06
1.81695e-09,4.10452e-09,4.10452e-06
1.90695e-09,4.2707499999999995e-09,4.27075e-06
1.99695e-09,4.43168e-09,4.43168e-06
2.08695e-09,4.587700000000001e-09,4.5877e-06
2.17695e-09,4.739720000000001e-09,4.73972e-06
2.26695e-09,4.88805e-09,4.88805e-06
2.35695e-09,5.03247e-09,5.03247e-06
2.44695e-09,5.172880000000001e-09,5.17288e-06
2.53695e-09,5.30829e-09,5.30829e-06
2.62695e-09,5.437710000000001e-09,5.43771e-06
2.71695e-09,5.56087e-09,5.56087e-06
2.80695e-09,5.67808e-09,5.67808e-06
2.89695e-09,5.78972e-09,5.78972e-06
2.98695e-09,5.89611e-09,5.89611e-06
3.07695e-09,5.99753e-09,5.99753e-06
3.16695e-09,6.09421e-09,6.09421e-06
3.25695e-09,6.1864e-09,6.1864e-06
3.34695e-09,6.27438e-09,6.27438e-06
3.43695e-09,6.35857e-09,6.35857e-06
3.52695e-09,6.43937e-09,6.43937e-06
3.61695e-09,6.51715e-09,6.51715e-06
3.70695e-09,6.59223e-09,6.59223e-06
3.79695e-09,6.664840000000001e-09,6.66484e-06
3.88695e-09,6.73522e-09,6.73522e-06
3.97695e-09,6.80359e-09,6.80359e-06
4.06695e-09,6.87009e-09,6.87009e-06
4.15695e-09,6.93487e-09,6.93487e-06
4.24695e-09,6.99798e-09,6.99798e-06
4.33695e-09,7.05951e-09,7.05951e-06
4.42695e-09,7.1195000000000005e-09,7.1195e-06
4.51695e-09,7.17802e-09,7.17802e-06
4.60695e-09,7.23512e-09,7.23512e-06
4.69695e-09,7.29089e-09,7.29089e-06
4.78695e-09,7.34541e-09,7.34541e-06
4.87695e-09,7.39876e-09,7.39876e-06
4.96695e-09,7.45102e-09,7.45102e-06
5.05695e-09,7.50226e-09,7.50226e-06
5.14695e-09,7.55254e-09,7.55254e-06
5.23695e-09,7.60191e-09,7.60191e-06
5.32695e-09,7.650429999999999e-09,7.65043e-06
5.41695e-09,7.698139999999999e-09,7.69814e-06
5.50695e-09,7.745110000000001e-09,7.74511e-06
5.59695e-09,7.791369999999999e-09,7.79137e-06
5.68695e-09,7.83696e-09,7.83696e-06
5.77695e-09,7.88193e-09,7.88193e-06
5.86695e-09,7.92631e-09,7.92631e-06
5.95695e-09,7.97012e-09,7.97012e-06
6.04695e-09,8.153450000000001e-09,8.15345e-06
6.13695e-09,9.80626e-09,9.80626e-06
6.22695e-09,1.14108e-08,1.14108e-05
6.31695e-09,1.2895600000000002e-08,1.28956e-05
6.40695e-09,1.42558e-08,1.42558e-05
6.49695e-09,1.54773e-08,1.54773e-05
6.58695e-09,1.6553e-08,1.6553e-05
6.67695e-09,1.74807e-08,1.74807e-05
6.76695e-09,1.82656e-08,1.82656e-05
6.85695e-09,1.89383e-08,1.89383e-05
6.94695e-09,1.95235e-08,1.95235e-05
7.03695e-09,2.00406e-08,2.00406e-05
7.12695e-09,2.05074e-08,2.05074e-05
7.21695e-09,2.09369e-08,2.09369e-05
7.30695e-09,2.1336e-08,2.1336e-05
7.39695e-09,2.17083e-08,2.17083e-05
7.48695e-09,2.20578e-08,2.20578e-05
7.57695e-09,2.23886e-08,2.23886e-05
7.66695e-09,2.27037e-08,2.27037e-05
7.75695e-09,2.3005e-08,2.3005e-05
7.84695e-09,2.3294100000000002e-08,2.32941e-05
7.93695e-09,2.3572e-08,2.3572e-05
8.02695e-09,2.3839500000000003e-08,2.38395e-05
8.11695e-09,2.40973e-08,2.40973e-05
8.20695e-09,2.43461e-08,2.43461e-05
8.29695e-09,2.45867e-08,2.45867e-05
8.38695e-09,2.4819599999999998e-08,2.48196e-05
8.47695e-09,2.50456e-08,2.50456e-05
8.56695e-09,2.52651e-08,2.52651e-05
8.65695e-09,2.5478500000000002e-08,2.54785e-05
8.74695e-09,2.56863e-08,2.56863e-05
8.83695e-09,2.58888e-08,2.58888e-05
8.92695e-09,2.6086300000000002e-08,2.60863e-05
9.01695e-09,2.6279e-08,2.6279e-05
9.10695e-09,2.64673e-08,2.64673e-05
9.19695e-09,2.66514e-08,2.66514e-05
9.28695e-09,2.68314e-08,2.68314e-05
9.37695e-09,2.70077e-08,2.70077e-05
9.46695e-09,2.71804e-08,2.71804e-05
9.55695e-09,2.73497e-08,2.73497e-05
9.64695e-09,2.75158e-08,2.75158e-05
9.73695e-09,2.7679000000000003e-08,2.7679e-05
9.82695e-09,2.78395e-08,2.78395e-05
9.91695e-09,2.7997300000000002e-08,2.79973e-05
1.0007e-08,2.81526e-08,2.81526e-05
1.0097e-08,2.8305499999999998e-08,2.83055e-05
1.0187e-08,2.84562e-08,2.84562e-05
1.0277e-08,2.8604600000000002e-08,2.86046e-05
1.0367e-08,2.8750900000000002e-08,2.87509e-05
1.0457e-08,2.8895200000000003e-08,2.88952e-05
1.0547e-08,2.90375e-08,2.90375e-05
1.0637e-08,2.9178e-08,2.9178e-05
1.0727e-08,2.9316600000000002e-08,2.93166e-05
1.0817e-08,2.94535e-08,2.94535e-05
1.0907e-08,2.95887e-08,2.95887e-05
1.0997e-08,2.97223e-08,2.97223e-05
1.1087e-08,2.98542e-08,2.98542e-05
1.1177e-08,2.99845e-08,2.99845e-05
1.1267e-08,3.01134e-08,3.01134e-05
1.1357e-08,3.02408e-08,3.02408e-05
1.1447e-08,3.03669e-08,3.03669e-05
1.1537e-08,3.04918e-08,3.04918e-05
1.1627e-08,3.10456e-08,3.10456e-05
1.1717e-08,3.16926e-08,3.16926e-05
1.1807e-08,3.2282600000000003e-08,3.22826e-05
1.1897e-08,3.29691e-08,3.29691e-05
1.1987e-08,3.39625e-08,3.39625e-05
1.2077e-08,3.4912900000000004e-08,3.49129e-05
1.2167e-08,3.57603e-08,3.57603e-05
1.2257e-08,3.6500400000000004e-08,3.65004e-05
1.2347e-08,3.71525e-08,3.71525e-05
1.2437e-08,3.77329e-08,3.77329e-05
1.2527e-08,3.82538e-08,3.82538e-05
1.2617e-08,3.8726700000000004e-08,3.87267e-05
1.2707e-08,3.91594e-08,3.91594e-05
1.2797e-08,3.9555799999999996e-08,3.95558e-05
1.2887e-08,3.99203e-08,3.99203e-05
1.2977e-08,4.0258900000000005e-08,4.02589e-05
1.3067e-08,4.05765e-08,4.05765e-05
1.3157e-08,4.08752e-08,4.08752e-05
1.3247e-08,4.1155800000000004e-08,4.11558e-05
1.3337e-08,4.14201e-08,4.14201e-05
1.3427e-08,4.16707e-08,4.16707e-05
1.3517e-08,4.19096e-08,4.19096e-05
1.3607e-08,4.2138699999999995e-08,4.21387e-05
1.3697e-08,4.23598e-08,4.23598e-05
1.3787e-08,4.2574399999999996e-08,4.25744e-05
1.3877e-08,4.27835e-08,4.27835e-05
1.3967e-08,4.29879e-08,4.29879e-05
1.4057e-08,4.3188e-08,4.3188e-05
1.4147e-08,4.33841e-08,4.33841e-05
1.4237e-08,4.35767e-08,4.35767e-05
1.4327e-08,4.3765900000000004e-08,4.37659e-05
1.4417e-08,4.3952e-08,4.3952e-05
1.4507e-08,4.4135099999999997e-08,4.41351e-05
1.4597e-08,4.43151e-08,4.43151e-05
1.4687e-08,4.44922e-08,4.44922e-05
1.4777e-08,4.46662e-08,4.46662e-05
1.4867e-08,4.48374e-08,4.48374e-05
1.4957e-08,4.5006100000000005e-08,4.50061e-05
1.5047e-08,4.5172400000000004e-08,4.51724e-05
1.5137e-08,4.5336500000000004e-08,4.53365e-05
1.5227e-08,4.54985e-08,4.54985e-05
1.5317e-08,4.56586e-08,4.56586e-05
1.5407e-08,4.58168e-08,4.58168e-05
1.5497e-08,4.59732e-08,4.59732e-05
1.5587e-08,4.61279e-08,4.61279e-05
1.5677e-08,4.62809e-08,4.62809e-05
1.5767e-08,4.6432400000000004e-08,4.64324e-05
1.5857e-08,4.65823e-08,4.65823e-05
1.5947e-08,4.6730800000000006e-08,4.67308e-05
1.6037e-08,4.68779e-08,4.68779e-05
1.6127e-08,4.70237e-08,4.70237e-05
1.6217e-08,4.71681e-08,4.71681e-05
1.6307e-08,4.73113e-08,4.73113e-05
1.6397e-08,4.7453200000000006e-08,4.74532e-05
1.6487e-08,4.75939e-08,4.75939e-05
1.6577e-08,4.77336e-08,4.77336e-05
1.6667e-08,4.78721e-08,4.78721e-05
1.6757e-08,4.8009500000000004e-08,4.80095e-05
1.6847e-08,4.81459e-08,4.81459e-05
1.6937e-08,4.8281200000000005e-08,4.82812e-05
1.7027e-08,4.84155e-08,4.84155e-05
1.7117e-08,4.85488e-08,4.85488e-05
1.7207e-08,4.8681099999999996e-08,4.86811e-05
1.7297e-08,4.88125e-08,4.88125e-05
1.7387e-08,4.8942900000000005e-08,4.89429e-05
1.7477e-08,4.90724e-08,4.90724e-05
1.7567e-08,4.92011e-08,4.92011e-05
1.7657e-08,4.9329000000000005e-08,4.9329e-05
1.7747e-08,4.9455900000000004e-08,4.94559e-05
1.7837e-08,4.95821e-08,4.95821e-05
1.7927e-08,4.97075e-08,4.97075e-05
1.8017e-08,4.9832e-08,4.9832e-05
1.8107e-08,4.9955700000000004e-08,4.99557e-05
1.8197e-08,5.00787e-08,5.00787e-05
1.8287e-08,5.0201e-08,5.0201e-05
1.8377e-08,5.03225e-08,5.03225e-05
1.8467e-08,5.04433e-08,5.04433e-05
1.8557e-08,5.0563399999999996e-08,5.05634e-05
1.8647e-08,5.06828e-08,5.06828e-05
1.8737e-08,5.08018e-08,5.08018e-05
1.8827e-08,5.092e-08,5.092e-05
1.8917e-08,5.10377e-08,5.10377e-05
1.9007e-08,5.11546e-08,5.11546e-05
1.9097e-08,5.12709e-08,5.12709e-05
1.9187e-08,5.13866e-08,5.13866e-05
1.9277e-08,5.1501700000000004e-08,5.15017e-05
1.9367e-08,5.161630000000001e-08,5.16163e-05
1.9457e-08,5.1730300000000004e-08,5.17303e-05
1.9547e-08,5.18438e-08,5.18438e-05
1.9637e-08,5.19567e-08,5.19567e-05
1.9727e-08,5.2069e-08,5.2069e-05
1.9817e-08,5.2180900000000004e-08,5.21809e-05
1.9907e-08,5.22922e-08,5.22922e-05
1.9997e-08,5.24031e-08,5.24031e-05
2.0087e-08,5.25134e-08,5.25134e-05
2.0177e-08,5.2623300000000004e-08,5.26233e-05
2.0267e-08,5.2732799999999996e-08,5.27328e-05
2.0357e-08,5.28418e-08,5.28418e-05
2.0447e-08,5.29505e-08,5.29505e-05
2.0537e-08,5.3059000000000005e-08,5.3059e-05
2.0627e-08,5.3167e-08,5.3167e-05
2.0717e-08,5.3274600000000004e-08,5.32746e-05
2.0807e-08,5.33818e-08,5.33818e-05
2.0897e-08,5.34887e-08,5.34887e-05
2.0987e-08,5.35953e-08,5.35953e-05
2.1077e-08,5.3701600000000005e-08,5.37016e-05
2.1167e-08,5.3807600000000006e-08,5.38076e-05
2.1257e-08,5.39131e-08,5.39131e-05
2.1347e-08,5.40182e-08,5.40182e-05
2.1437e-08,5.41229e-08,5.41229e-05
2.1527e-08,5.4227100000000005e-08,5.42271e-05
2.1617e-08,5.43309e-08,5.43309e-05
2.1707e-08,5.4434400000000005e-08,5.44344e-05
2.1797e-08,5.45375e-08,5.45375e-05
2.1887e-08,5.46403e-08,5.46403e-05
2.1977e-08,5.47428e-08,5.47428e-05
2.2067e-08,5.48453e-08,5.48453e-05
2.2157e-08,5.49475e-08,5.49475e-05
2.2247e-08,5.5049600000000005e-08,5.50496e-05
2.2337e-08,5.5151300000000005e-08,5.51513e-05
2.2427e-08,5.52528e-08,5.52528e-05
2.2517e-08,5.53541e-08,5.53541e-05
2.2607e-08,5.54552e-08,5.54552e-05
2.2697e-08,5.5556000000000005e-08,5.5556e-05
2.2787e-08,5.56565e-08,5.56565e-05
2.2877e-08,5.5756700000000005e-08,5.57567e-05
2.2967e-08,5.58568e-08,5.58568e-05
2.3057e-08,5.59567e-08,5.59567e-05
2.3147e-08,5.6056400000000004e-08,5.60564e-05
2.3237e-08,5.6156000000000003e-08,5.6156e-05
2.3327e-08,5.62555e-08,5.62555e-05
2.3417e-08,5.63549e-08,5.63549e-05
2.3507e-08,5.64543e-08,5.64543e-05
2.3597e-08,5.65536e-08,5.65536e-05
2.3687e-08,5.6784e-08,5.6784e-05
2.3777e-08,5.72581e-08,5.72581e-05
2.3867e-08,5.77163e-08,5.77163e-05
2.3957e-08,5.8158500000000004e-08,5.81585e-05
2.4047e-08,5.85748e-08,5.85748e-05
2.4137e-08,5.89542e-08,5.89542e-05
2.4227e-08,5.9298e-08,5.9298e-05
2.4317e-08,5.96408e-08,5.96408e-05
2.4407e-08,6.028810000000001e-08,6.02881e-05
2.4497e-08,6.09422e-08,6.09422e-05
2.4587e-08,6.15545e-08,6.15545e-05
2.4677e-08,6.21327e-08,6.21327e-05
2.4767e-08,6.26685e-08,6.26685e-05
2.4857e-08,6.316180000000001e-08,6.31618e-05
2.4947e-08,6.360589999999999e-08,6.36059e-05
2.5037e-08,6.40016e-08,6.40016e-05
2.5127e-08,6.43599e-08,6.43599e-05
2.5217e-08,6.469e-08,6.469e-05
2.5307e-08,6.49973e-08,6.49973e-05
2.5397e-08,6.52828e-08,6.52828e-05
2.5487e-08,6.55461e-08,6.55461e-05
2.5577e-08,6.57897e-08,6.57897e-05
2.5667e-08,6.60181e-08,6.60181e-05
2.5757e-08,6.62295e-08,6.62295e-05
2.5847e-08,6.64298e-08,6.64298e-05
2.5937e-08,6.662039999999999e-08,6.66204e-05
2.6027e-08,6.680280000000001e-08,6.68028e-05
2.6117e-08,6.69784e-08,6.69784e-05
2.6207e-08,6.71483e-08,6.71483e-05
2.6297e-08,6.7313e-08,6.7313e-05
2.6387e-08,6.74729e-08,6.74729e-05
2.6477e-08,6.76285e-08,6.76285e-05
2.6567e-08,6.778040000000001e-08,6.77804e-05
2.6657e-08,6.792900000000001e-08,6.7929e-05
2.6747e-08,6.807480000000001e-08,6.80748e-05
2.6837e-08,6.821800000000001e-08,6.8218e-05
2.6927e-08,6.83588e-08,6.83588e-05
2.7017e-08,6.84975e-08,6.84975e-05
2.7107e-08,6.863430000000001e-08,6.86343e-05
2.7197e-08,6.87693e-08,6.87693e-05
2.7287e-08,6.89029e-08,6.89029e-05
2.7377e-08,6.903500000000001e-08,6.9035e-05
2.7467e-08,6.91657e-08,6.91657e-05
2.7557e-08,6.92951e-08,6.92951e-05
2.7647e-08,6.942309999999999e-08,6.94231e-05
2.7737e-08,6.95498e-08,6.95498e-05
2.7827e-08,6.96754e-08,6.96754e-05
2.7917e-08,6.97999e-08,6.97999e-05
2.8007e-08,6.99233e-08,6.99233e-05
2.8097e-08,7.00458e-08,7.00458e-05
2.8187e-08,7.016739999999999e-08,7.01674e-05
2.8277e-08,7.03104e-08,7.03104e-05
2.8367e-08,7.05558e-08,7.05558e-05
2.8457e-08,7.09089e-08,7.09089e-05
2.8547e-08,7.126199999999999e-08,7.1262e-05
2.8637e-08,7.15926e-08,7.15926e-05
2.8727e-08,7.19009e-08,7.19009e-05
2.8817e-08,7.218970000000001e-08,7.21897e-05
2.8907e-08,7.246190000000001e-08,7.24619e-05
2.8997e-08,7.271999999999999e-08,7.272e-05
2.9087e-08,7.2966e-08,7.2966e-05
2.9177e-08,7.320139999999999e-08,7.32014e-05
2.9267e-08,7.342690000000001e-08,7.34269e-05
2.9357e-08,7.36427e-08,7.36427e-05
2.9447e-08,7.38491e-08,7.38491e-05
2.9537e-08,7.40473e-08,7.40473e-05
2.9627e-08,7.423860000000001e-08,7.42386e-05
2.9717e-08,7.44239e-08,7.44239e-05
2.9807e-08,7.460380000000001e-08,7.46038e-05
2.9897e-08,7.47788e-08,7.47788e-05
2.9987e-08,7.49495e-08,7.49495e-05
3.0077e-08,7.51155e-08,7.51155e-05
3.0167e-08,7.52773e-08,7.52773e-05
3.0257e-08,7.54356e-08,7.54356e-05
3.0347e-08,7.55906e-08,7.55906e-05
3.0437e-08,7.57425e-08,7.57425e-05
3.0527e-08,7.58915e-08,7.58915e-05
3.0617e-08,7.60381e-08,7.60381e-05
3.0707e-08,7.61825e-08,7.61825e-05
3.0797e-08,7.63246e-08,7.63246e-05
3.0887e-08,7.64645e-08,7.64645e-05
3.0977e-08,7.660190000000001e-08,7.66019e-05
3.1067e-08,7.6737e-08,7.6737e-05
3.1157e-08,7.687009999999999e-08,7.68701e-05
3.1247e-08,7.70017e-08,7.70017e-05
3.1337e-08,7.7132e-08,7.7132e-05
3.1427e-08,7.72613e-08,7.72613e-05
3.1517e-08,7.73894e-08,7.73894e-05
3.1607e-08,7.752080000000001e-08,7.75208e-05
3.1697e-08,7.78012e-08,7.78012e-05
3.1787e-08,7.81809e-08,7.81809e-05
3.1877e-08,7.85465e-08,7.85465e-05
3.1967e-08,7.88935e-08,7.88935e-05
3.2057e-08,7.92184e-08,7.92184e-05
3.2147e-08,7.95156e-08,7.95156e-05
3.2237e-08,7.99914e-08,7.99914e-05
3.2327e-08,8.08434e-08,8.08434e-05
3.2417e-08,8.12901e-08,8.12901e-05
3.2507e-08,8.18112e-08,8.18112e-05
3.2597e-08,8.234919999999999e-08,8.23492e-05
3.2687e-08,8.28652e-08,8.28652e-05
3.2777e-08,8.334650000000001e-08,8.33465e-05
3.2867e-08,8.379170000000001e-08,8.37917e-05
3.2957e-08,8.42058e-08,8.42058e-05
3.3047e-08,8.459200000000001e-08,8.4592e-05
3.3137e-08,8.495099999999999e-08,8.4951e-05
3.3227e-08,8.52861e-08,8.52861e-05
3.3317e-08,8.56015e-08,8.56015e-05
3.3407e-08,8.58998e-08,8.58998e-05
3.3497e-08,8.62055e-08,8.62055e-05
3.3587e-08,8.674590000000001e-08,8.67459e-05
3.3677e-08,8.7294e-08,8.7294e-05
3.3767e-08,8.78244e-08,8.78244e-05
3.38569e-08,8.8324e-08,8.8324e-05
3.3947e-08,8.87842e-08,8.87842e-05
3.4037e-08,8.9208e-08,8.9208e-05
3.4127e-08,8.96004e-08,8.96004e-05
3.4217e-08,8.99658e-08,8.99658e-05
3.4307e-08,9.03083e-08,9.03083e-05
3.4397e-08,9.06315e-08,9.06315e-05
3.4487e-08,9.09375e-08,9.09375e-05
3.4577e-08,9.12274e-08,9.12274e-05
3.4667e-08,9.15021e-08,9.15021e-05
3.4757e-08,9.176239999999999e-08,9.17624e-05
3.4847e-08,9.200990000000001e-08,9.20099e-05
3.4937e-08,9.22468e-08,9.22468e-05
3.5027e-08,9.24748e-08,9.24748e-05
3.5117e-08,9.269500000000001e-08,9.2695e-05
3.5207e-08,9.29082e-08,9.29082e-05
3.5297e-08,9.31147e-08,9.31147e-05
3.5387e-08,9.3315e-08,9.3315e-05
3.54769e-08,9.35097e-08,9.35097e-05
3.5567e-08,9.36992e-08,9.36992e-05
3.5657e-08,9.388430000000001e-08,9.38843e-05
3.5747e-08,9.40655e-08,9.40655e-05
3.58369e-08,9.42432e-08,9.42432e-05
3.59269e-08,9.441780000000001e-08,9.44178e-05
3.6017e-08,9.458960000000001e-08,9.45896e-05
3.6107e-08,9.475880000000001e-08,9.47588e-05
3.61969e-08,9.49254e-08,9.49254e-05
3.62869e-08,9.50898e-08,9.50898e-05
3.6377e-08,9.5252e-08,9.5252e-05
3.6467e-08,9.54122e-08,9.54122e-05
3.6557e-08,9.55706e-08,9.55706e-05
3.6647e-08,9.57274e-08,9.57274e-05
3.6737e-08,9.58827e-08,9.58827e-05
3.6827e-08,9.603640000000001e-08,9.60364e-05
3.6917e-08,9.61888e-08,9.61888e-05
3.7007e-08,9.63398e-08,9.63398e-05
3.7097e-08,9.64896e-08,9.64896e-05
3.7187e-08,9.66382e-08,9.66382e-05
3.7277e-08,9.67857e-08,9.67857e-05
3.7367e-08,9.69324e-08,9.69324e-05
3.7457e-08,9.70782e-08,9.70782e-05
3.7547e-08,9.72231e-08,9.72231e-05
3.7637e-08,9.73673e-08,9.73673e-05
3.7727e-08,9.751099999999999e-08,9.7511e-05
3.7817e-08,9.7654e-08,9.7654e-05
3.7907e-08,9.77966e-08,9.77966e-05
3.7997e-08,9.79385e-08,9.79385e-05
3.8087e-08,9.807990000000001e-08,9.80799e-05
3.8177e-08,9.82207e-08,9.82207e-05
3.8267e-08,9.83609e-08,9.83609e-05
3.8357e-08,9.85005e-08,9.85005e-05
3.8447e-08,9.863940000000001e-08,9.86394e-05
3.8537e-08,9.87778e-08,9.87778e-05
3.8627e-08,9.891550000000001e-08,9.89155e-05
3.8717e-08,9.905269999999999e-08,9.90527e-05
3.8807e-08,9.918940000000001e-08,9.91894e-05
3.8897e-08,9.93254e-08,9.93254e-05
3.89869e-08,9.946080000000001e-08,9.94608e-05
3.9077e-08,9.95958e-08,9.95958e-05
3.9167e-08,9.97304e-08,9.97304e-05
3.9257e-08,9.98646e-08,9.98646e-05
3.9347e-08,9.99986e-08,9.99986e-05
3.9437e-08,1.00132e-07,0.000100132
3.9527e-08,1.00265e-07,0.000100265
3.9617e-08,1.00398e-07,0.000100398
3.9707e-08,1.00532e-07,0.000100532
3.9797e-08,1.00665e-07,0.000100665
3.9887e-08,1.0079700000000001e-07,0.000100797
3.9977e-08,1.0093e-07,0.00010093
4.0067e-08,1.0106200000000001e-07,0.000101062
4.0157e-08,1.0119300000000001e-07,0.000101193
4.0247e-08,1.01325e-07,0.000101325
4.0337e-08,1.01456e-07,0.000101456
4.0427e-08,1.0177e-07,0.00010177
4.0517e-08,1.0178500000000001e-07,0.000101785
4.0607e-08,1.01877e-07,0.000101877
4.0697e-08,1.01993e-07,0.000101993
4.0787e-08,1.02117e-07,0.000102117
4.0877e-08,1.0224300000000001e-07,0.000102243
4.09669e-08,1.0237e-07,0.00010237
4.1057e-08,1.02498e-07,0.000102498
4.1147e-08,1.0262600000000001e-07,0.000102626
4.1237e-08,1.02754e-07,0.000102754
4.1327e-08,1.02882e-07,0.000102882
4.1417e-08,1.0301000000000001e-07,0.00010301
4.1507e-08,1.0313800000000001e-07,0.000103138
4.1597e-08,1.0326599999999999e-07,0.000103266
4.1687e-08,1.03394e-07,0.000103394
4.1777e-08,1.03523e-07,0.000103523
4.1867e-08,1.03651e-07,0.000103651
4.1957e-08,1.0377899999999999e-07,0.000103779
4.2047e-08,1.0390799999999999e-07,0.000103908
4.2137e-08,1.04036e-07,0.000104036
4.2227e-08,1.04164e-07,0.000104164
4.2317e-08,1.04292e-07,0.000104292
4.2407e-08,1.0442e-07,0.00010442
4.2497e-08,1.04548e-07,0.000104548
4.2587e-08,1.04676e-07,0.000104676
4.2677e-08,1.04803e-07,0.000104803
4.2767e-08,1.04931e-07,0.000104931
4.2857e-08,1.05058e-07,0.000105058
4.2947e-08,1.0518600000000001e-07,0.000105186
4.3037e-08,1.05313e-07,0.000105313
4.3127e-08,1.0544e-07,0.00010544
4.3217e-08,1.0556700000000001e-07,0.000105567
4.3307e-08,1.05693e-07,0.000105693
4.33969e-08,1.0582e-07,0.00010582
4.3487e-08,1.05946e-07,0.000105946
4.3577e-08,1.06072e-07,0.000106072
4.3667e-08,1.0619800000000001e-07,0.000106198
4.3757e-08,1.0632399999999999e-07,0.000106324
4.3847e-08,1.0645e-07,0.00010645
4.3937e-08,1.06575e-07,0.000106575
4.4027e-08,1.06701e-07,0.000106701
4.4117e-08,1.0682599999999999e-07,0.000106826
4.4207e-08,1.06951e-07,0.000106951
4.4297e-08,1.07076e-07,0.000107076
4.4387e-08,1.07082e-07,0.000107082
4.44095e-08,1.07105e-07,0.000107105
4.44432e-08,1.07187e-07,0.000107187
4.44938e-08,1.07062e-07,0.000107062
4.45698e-08,1.0733899999999999e-07,0.000107339
4.46598e-08,1.07501e-07,0.000107501
4.47498e-08,1.0767799999999999e-07,0.000107678
4.48398e-08,1.0784e-07,0.00010784
4.49298e-08,1.07987e-07,0.000107987
4.50198e-08,1.08124e-07,0.000108124
4.51098e-08,1.08254e-07,0.000108254
4.51998e-08,1.0838100000000001e-07,0.000108381
4.52898e-08,1.0850599999999999e-07,0.000108506
4.53798e-08,1.0862900000000001e-07,0.000108629
4.54698e-08,1.08752e-07,0.000108752
4.55598e-08,1.08873e-07,0.000108873
