
                  X             Displacement          Force      

                0.                -0.                 0.         
                1.E-03           100.E-15             1.07776E-09
                2.E-03           200.E-15           620.58E-12   
                3.5E-03          350.E-15            59.0772E-12 
                5.75E-03         575.E-15             4.75751E-12
                9.125E-03        912.5E-15          468.46E-15   
               14.1875E-03         1.41875E-12       46.796E-15  
               21.7812E-03         2.17813E-12        4.68016E-15
               33.1719E-03         3.31719E-12      468.016E-18  
               50.2578E-03         5.02578E-12       46.7983E-18 
               75.8867E-03         7.58867E-12        4.67966E-18
              114.33E-03          11.433E-12        467.916E-21  
              171.995E-03         17.1995E-12        46.7869E-21 
              258.493E-03         25.8493E-12         4.67834E-21
              388.239E-03         38.8239E-12       467.772E-24  
              582.859E-03         58.2859E-12        46.7682E-24 
              874.788E-03         87.4788E-12         4.67546E-24
                1.31268          131.268E-12        467.341E-27  
                1.96952          196.952E-12         46.7035E-27 
                2.66952          266.952E-12          4.66708E-27
                3.36952          336.952E-12        466.381E-30  
                4.06952          406.952E-12         46.6055E-30 
                4.76952          476.952E-12          4.65728E-30
                5.46952          546.952E-12        465.401E-33  
                6.16952          616.952E-12         46.5074E-33 
                6.86952          686.952E-12          4.64748E-33
                7.56952          756.952E-12        464.421E-36  
                8.26952          826.952E-12         46.4095E-36 
                8.96952          896.952E-12          4.63768E-36
                9.66952          966.952E-12        121.253E-09  
               10.3695             1.03695E-09      739.32E-09   
               11.0695             1.10695E-09        1.35689E-06
               11.7695             1.17695E-09        1.97408E-06
               12.4695             1.24695E-09        2.59079E-06
               13.1695             1.31695E-09        3.18074E-06
               13.8695             1.38695E-09        3.72453E-06
               14.5695             1.45695E-09        4.20544E-06
               15.2695             1.52695E-09        4.5876E-06 
               15.9695             1.59695E-09        4.88603E-06
               16.6695             1.66695E-09        5.13851E-06
               17.3695             1.73695E-09        5.36607E-06
               18.0695             1.80695E-09        5.57211E-06
               18.7695             1.87695E-09        5.76138E-06
               19.4695             1.94695E-09        5.9341E-06 
               20.1695             2.01695E-09        6.09023E-06
               20.8695             2.08695E-09        6.23174E-06
               21.5695             2.15695E-09        6.36259E-06
               22.2695             2.22695E-09        6.48628E-06
               22.9695             2.29695E-09        6.60468E-06
               23.6695             2.36695E-09        6.71876E-06
               24.3695             2.43695E-09        6.82938E-06
               25.0695             2.50695E-09        6.93721E-06
               25.7695             2.57695E-09        7.04268E-06
               26.4695             2.64695E-09        7.14587E-06
               27.1695             2.71695E-09        7.24682E-06
               27.8695             2.78695E-09        7.34552E-06
               28.5695             2.85695E-09        7.44202E-06
               29.2695             2.92695E-09        7.53648E-06
               29.9695             2.99695E-09        7.629E-06  
               30.6695             3.06695E-09        7.71961E-06
               31.3695             3.13695E-09        7.8082E-06 
               32.0695             3.20695E-09        7.89464E-06
               32.7695             3.27695E-09        7.97892E-06
               33.4695             3.34695E-09        8.06114E-06
               34.1695             3.41695E-09        8.14137E-06
               34.8695             3.48695E-09        8.21964E-06
               35.5695             3.55695E-09        8.29586E-06
               36.2695             3.62695E-09        8.3698E-06 
               36.9695             3.69695E-09        8.44129E-06
               37.6695             3.76695E-09        8.51024E-06
               38.3695             3.83695E-09        8.5767E-06 
               39.0695             3.90695E-09        8.64083E-06
               39.7695             3.97695E-09        8.70272E-06
               40.4695             4.04695E-09        8.76244E-06
               41.1695             4.11695E-09        8.82003E-06
               41.8695             4.18695E-09        8.87553E-06
               42.5695             4.25695E-09        8.92899E-06
               43.2695             4.32695E-09        8.98048E-06
               43.9695             4.39695E-09        9.03007E-06
               44.6695             4.46695E-09        9.07784E-06
               45.3695             4.53695E-09        9.12389E-06
               46.0695             4.60695E-09        9.16837E-06
               46.7695             4.67695E-09        9.21141E-06
               47.4695             4.74695E-09        9.25315E-06
               48.1695             4.81695E-09        9.29371E-06
               48.8695             4.88695E-09        9.33318E-06
               49.5695             4.95695E-09        9.37161E-06
               50.2695             5.02695E-09        9.40905E-06
               50.9695             5.09695E-09        9.44554E-06
               51.6695             5.16695E-09        9.48112E-06
               52.3695             5.23695E-09        9.51582E-06
               53.0695             5.30695E-09        9.54967E-06
               53.7695             5.37695E-09        9.5827E-06 
               54.4695             5.44695E-09        9.61493E-06
               55.1695             5.51695E-09        9.6464E-06 
               55.8695             5.58695E-09        9.67714E-06
               56.5695             5.65695E-09        9.70718E-06
               57.2695             5.72695E-09        9.73651E-06
               57.9695             5.79695E-09        9.76519E-06
               58.6695             5.86695E-09        9.79328E-06
               59.3695             5.93695E-09        9.82081E-06
               60.0695             6.00695E-09        9.84781E-06
               60.7695             6.07695E-09        9.87431E-06
               61.4695             6.14695E-09       10.3326E-06 
               62.1695             6.21695E-09       11.5741E-06 
               62.8695             6.28695E-09       12.8778E-06 
               63.5695             6.35695E-09       14.1441E-06 
               64.2695             6.42695E-09       15.3718E-06 
               64.9695             6.49695E-09       16.5588E-06 
               65.6695             6.56695E-09       17.7E-06    
               66.3695             6.63695E-09       18.7817E-06 
               67.0695             6.70695E-09       19.7946E-06 
               67.7695             6.77695E-09       20.7382E-06 
               68.4695             6.84695E-09       21.6071E-06 
               69.1695             6.91695E-09       22.3978E-06 
               69.8695             6.98695E-09       23.1158E-06 
               70.5695             7.05695E-09       23.7736E-06 
               71.2695             7.12695E-09       24.3797E-06 
               71.9695             7.19695E-09       24.9402E-06 
               72.6695             7.26695E-09       25.4586E-06 
               73.3695             7.33695E-09       25.9368E-06 
               74.0695             7.40695E-09       26.3786E-06 
               74.7695             7.47695E-09       26.7891E-06 
               75.4695             7.54695E-09       27.1724E-06 
               76.1695             7.61695E-09       27.5313E-06 
               76.8695             7.68695E-09       27.8686E-06 
               77.5695             7.75695E-09       28.1868E-06 
               78.2695             7.82695E-09       28.4882E-06 
               78.9695             7.89695E-09       28.7746E-06 
               79.6695             7.96695E-09       29.0474E-06 
               80.3695             8.03695E-09       29.3078E-06 
               81.0695             8.10695E-09       29.5566E-06 
               81.7695             8.17695E-09       29.7945E-06 
               82.4695             8.24695E-09       30.0221E-06 
               83.1695             8.31695E-09       30.2403E-06 
               83.8695             8.38695E-09       30.4499E-06 
               84.5695             8.45695E-09       30.6515E-06 
               85.2695             8.52695E-09       30.8458E-06 
               85.9695             8.59695E-09       31.0335E-06 
               86.6695             8.66695E-09       31.2152E-06 
               87.3695             8.73695E-09       31.3913E-06 
               88.0695             8.80695E-09       31.5624E-06 
               88.7695             8.87695E-09       31.7287E-06 
               89.4695             8.94695E-09       31.8905E-06 
               90.1695             9.01695E-09       32.0481E-06 
               90.8695             9.08695E-09       32.2017E-06 
               91.5695             9.15695E-09       32.3515E-06 
               92.2695             9.22695E-09       32.4979E-06 
               92.9695             9.29695E-09       32.641E-06  
               93.6695             9.36695E-09       32.7809E-06 
               94.3695             9.43695E-09       32.9178E-06 
               95.0695             9.50695E-09       33.0518E-06 
               95.7695             9.57695E-09       33.1828E-06 
               96.4695             9.64695E-09       33.3111E-06 
               97.1695             9.71695E-09       33.4366E-06 
               97.8695             9.78695E-09       33.5594E-06 
               98.5695             9.85695E-09       33.6798E-06 
               99.2695             9.92695E-09       33.7978E-06 
               99.9695             9.99695E-09       33.9135E-06 
              100.67              10.067E-09         34.0271E-06 
              101.37              10.137E-09         34.1385E-06 
              102.07              10.207E-09         34.2479E-06 
              102.77              10.277E-09         34.3552E-06 
              103.47              10.347E-09         34.4607E-06 
              104.17              10.417E-09         34.5643E-06 
              104.87              10.487E-09         34.666E-06  
              105.57              10.557E-09         34.7661E-06 
              106.27              10.627E-09         34.8645E-06 
              106.97              10.697E-09         34.9614E-06 
              107.67              10.767E-09         35.0566E-06 
              108.37              10.837E-09         35.1504E-06 
              109.07              10.907E-09         35.2427E-06 
              109.77              10.977E-09         35.3336E-06 
              110.47              11.047E-09         35.423E-06  
              111.17              11.117E-09         35.511E-06  
              111.87              11.187E-09         35.5975E-06 
              112.57              11.257E-09         35.6827E-06 
              113.27              11.327E-09         35.9617E-06 
              113.97              11.397E-09         36.4227E-06 
              114.67              11.467E-09         36.9471E-06 
              115.37              11.537E-09         37.4469E-06 
              116.07              11.607E-09         37.9229E-06 
              116.77              11.677E-09         38.3689E-06 
              117.47              11.747E-09         38.8012E-06 
              118.17              11.817E-09         39.4315E-06 
              118.87              11.887E-09         40.0422E-06 
              119.57              11.957E-09         40.6462E-06 
              120.27              12.027E-09         41.4037E-06 
              120.97              12.097E-09         42.1326E-06 
              121.67              12.167E-09         42.8183E-06 
              122.37              12.237E-09         43.4636E-06 
              123.07              12.307E-09         44.0694E-06 
              123.77              12.377E-09         44.6336E-06 
              124.47              12.447E-09         45.1607E-06 
              125.17              12.517E-09         45.655E-06  
              125.87              12.587E-09         46.1201E-06 
              126.57              12.657E-09         46.5543E-06 
              127.27              12.727E-09         46.9513E-06 
              127.97              12.797E-09         47.3122E-06 
              128.67              12.867E-09         47.6435E-06 
              129.37              12.937E-09         47.9506E-06 
              130.07              13.007E-09         48.2378E-06 
              130.77              13.077E-09         48.5087E-06 
              131.47              13.147E-09         48.7657E-06 
              132.17              13.217E-09         49.0106E-06 
              132.87              13.287E-09         49.2444E-06 
              133.57              13.357E-09         49.4678E-06 
              134.27              13.427E-09         49.6817E-06 
              134.97              13.497E-09         49.8866E-06 
              135.67              13.567E-09         50.0833E-06 
              136.37              13.637E-09         50.2726E-06 
              137.07              13.707E-09         50.4549E-06 
              137.77              13.777E-09         50.6309E-06 
              138.47              13.847E-09         50.8012E-06 
              139.17              13.917E-09         50.9663E-06 
              139.87              13.987E-09         51.1265E-06 
              140.57              14.057E-09         51.2824E-06 
              141.27              14.127E-09         51.4344E-06 
              141.97              14.197E-09         51.5826E-06 
              142.67              14.267E-09         51.7276E-06 
              143.37              14.337E-09         51.8694E-06 
              144.07              14.407E-09         52.0083E-06 
              144.77              14.477E-09         52.1445E-06 
              145.47              14.547E-09         52.2782E-06 
              146.17              14.617E-09         52.4094E-06 
              146.87              14.687E-09         52.5384E-06 
              147.57              14.757E-09         52.6653E-06 
              148.27              14.827E-09         52.79E-06   
              148.97              14.897E-09         52.9127E-06 
              149.67              14.967E-09         53.0334E-06 
              150.37              15.037E-09         53.1523E-06 
              151.07              15.107E-09         53.2693E-06 
              151.77              15.177E-09         53.3847E-06 
              152.47              15.247E-09         53.4983E-06 
              153.17              15.317E-09         53.6104E-06 
              153.87              15.387E-09         53.721E-06  
              154.57              15.457E-09         53.8302E-06 
              155.27              15.527E-09         53.9381E-06 
              155.97              15.597E-09         54.0446E-06 
              156.67              15.667E-09         54.1499E-06 
              157.37              15.737E-09         54.254E-06  
              158.07              15.807E-09         54.3569E-06 
              158.77              15.877E-09         54.4589E-06 
              159.47              15.947E-09         54.5599E-06 
              160.17              16.017E-09         54.6599E-06 
              160.87              16.087E-09         54.7591E-06 
              161.57              16.157E-09         54.8576E-06 
              162.27              16.227E-09         54.9554E-06 
              162.97              16.297E-09         55.0524E-06 
              163.67              16.367E-09         55.1488E-06 
              164.37              16.437E-09         55.2444E-06 
              165.07              16.507E-09         55.3394E-06 
              165.77              16.577E-09         55.4338E-06 
              166.47              16.647E-09         55.5275E-06 
              167.17              16.717E-09         55.6207E-06 
              167.87              16.787E-09         55.7133E-06 
              168.57              16.857E-09         55.8052E-06 
              169.27              16.927E-09         55.8966E-06 
              169.97              16.997E-09         55.9873E-06 
              170.67              17.067E-09         56.0773E-06 
              171.37              17.137E-09         56.1667E-06 
              172.07              17.207E-09         56.2555E-06 
              172.77              17.277E-09         56.3437E-06 
              173.47              17.347E-09         56.4311E-06 
              174.17              17.417E-09         56.5179E-06 
              174.87              17.487E-09         56.6042E-06 
              175.57              17.557E-09         56.6899E-06 
              176.27              17.627E-09         56.775E-06  
              176.97              17.697E-09         56.8595E-06 
              177.67              17.767E-09         56.9435E-06 
              178.37              17.837E-09         57.027E-06  
              179.07              17.907E-09         57.1099E-06 
              179.77              17.977E-09         57.1924E-06 
              180.47              18.047E-09         57.2743E-06 
              181.17              18.117E-09         57.3557E-06 
              181.87              18.187E-09         57.4366E-06 
              182.57              18.257E-09         57.5171E-06 
              183.27              18.327E-09         57.5972E-06 
              183.97              18.397E-09         57.677E-06  
              184.67              18.467E-09         57.7563E-06 
              185.37              18.537E-09         57.8353E-06 
              186.07              18.607E-09         57.914E-06  
              186.77              18.677E-09         57.9924E-06 
              187.47              18.747E-09         58.0703E-06 
              188.17              18.817E-09         58.1479E-06 
              188.87              18.887E-09         58.2251E-06 
              189.57              18.957E-09         58.3019E-06 
              190.27              19.027E-09         58.3784E-06 
              190.97              19.097E-09         58.4545E-06 
              191.67              19.167E-09         58.5304E-06 
              192.37              19.237E-09         58.6059E-06 
              193.07              19.307E-09         58.6812E-06 
              193.77              19.377E-09         58.7562E-06 
              194.47              19.447E-09         58.8307E-06 
              195.17              19.517E-09         58.905E-06  
              195.87              19.587E-09         58.9789E-06 
              196.57              19.657E-09         59.0524E-06 
              197.27              19.727E-09         59.1257E-06 
              197.97              19.797E-09         59.1987E-06 
              198.67              19.867E-09         59.2715E-06 
              199.37              19.937E-09         59.3441E-06 
              200.07              20.007E-09         59.4164E-06 
