
                  X             Displacement          Force      

                0.                -0.                 0.         
                1.E-03           100.E-15             1.12305E-09
                2.E-03           200.E-15           705.781E-12  
                3.5E-03          350.E-15            70.4427E-12 
                5.75E-03         575.E-15             5.55354E-12
                9.125E-03        912.5E-15          545.344E-15  
               14.1875E-03         1.41875E-12       54.4662E-15 
               21.7812E-03         2.17813E-12        5.44649E-15
               33.1719E-03         3.31719E-12      544.604E-18  
               50.2578E-03         5.02578E-12       54.4593E-18 
               75.8867E-03         7.58867E-12        5.44559E-18
              114.33E-03          11.433E-12        544.533E-21  
              171.995E-03         17.1995E-12        54.4481E-21 
              258.493E-03         25.8493E-12         5.44419E-21
              388.239E-03         38.8239E-12       544.35E-24   
              582.859E-03         58.2859E-12        54.4247E-24 
              874.788E-03         87.4788E-12         5.44088E-24
                1.31268          131.268E-12        543.85E-27   
                1.96952          196.952E-12         54.3494E-27 
                2.76952          276.952E-12          5.43059E-27
                3.56952          356.952E-12        542.625E-30  
                4.36952          436.952E-12         54.219E-30  
                5.16952          516.952E-12          5.41756E-30
                5.96952          596.952E-12        541.322E-33  
                6.76952          676.952E-12         54.0888E-33 
                7.56952          756.952E-12          5.40453E-33
                8.36952          836.952E-12        540.019E-36  
                9.16952          916.952E-12         53.9585E-36 
                9.96952          996.952E-12        411.121E-09  
               10.7695             1.07695E-09        1.16265E-06
               11.5695             1.15695E-09        1.91364E-06
               12.3695             1.23695E-09        2.66366E-06
               13.1695             1.31695E-09        3.35567E-06
               13.9695             1.39695E-09        3.97018E-06
               14.7695             1.47695E-09        4.43405E-06
               15.5695             1.55695E-09        4.77475E-06
               16.3695             1.63695E-09        5.0651E-06 
               17.1695             1.71695E-09        5.33089E-06
               17.9695             1.79695E-09        5.57262E-06
               18.7695             1.87695E-09        5.78988E-06
               19.5695             1.95695E-09        5.98413E-06
               20.3695             2.03695E-09        6.1591E-06 
               21.1695             2.11695E-09        6.31649E-06
               21.9695             2.19695E-09        6.46036E-06
               22.7695             2.27695E-09        6.59468E-06
               23.5695             2.35695E-09        6.72055E-06
               24.3695             2.43695E-09        6.84036E-06
               25.1695             2.51695E-09        6.95461E-06
               25.9695             2.59695E-09        7.0635E-06 
               26.7695             2.67695E-09        7.16808E-06
               27.5695             2.75695E-09        7.2682E-06 
               28.3695             2.83695E-09        7.36422E-06
               29.1695             2.91695E-09        7.45671E-06
               29.9695             2.99695E-09        7.54615E-06
               30.7695             3.07695E-09        7.63237E-06
               31.5695             3.15695E-09        7.71524E-06
               32.3695             3.23695E-09        7.79506E-06
               33.1695             3.31695E-09        7.87188E-06
               33.9695             3.39695E-09        7.94531E-06
               34.7695             3.47695E-09        8.01552E-06
               35.5695             3.55695E-09        8.08284E-06
               36.3695             3.63695E-09        8.14728E-06
               37.1695             3.71695E-09        8.20874E-06
               37.9695             3.79695E-09        8.26718E-06
               38.7695             3.87695E-09        8.32259E-06
               39.5695             3.95695E-09        8.37511E-06
               40.3695             4.03695E-09        8.42497E-06
               41.1695             4.11695E-09        8.47246E-06
               41.9695             4.19695E-09        8.51779E-06
               42.7695             4.27695E-09        8.56114E-06
               43.5695             4.35695E-09        8.6027E-06 
               44.3695             4.43695E-09        8.64257E-06
               45.1695             4.51695E-09        8.68077E-06
               45.9695             4.59695E-09        8.71741E-06
               46.7695             4.67695E-09        8.7526E-06 
               47.5695             4.75695E-09        8.78645E-06
               48.3695             4.83695E-09        8.8191E-06 
               49.1695             4.91695E-09        8.85071E-06
               49.9695             4.99695E-09        8.88137E-06
               50.7695             5.07695E-09        8.91116E-06
               51.5695             5.15695E-09        8.94012E-06
               52.3695             5.23695E-09        8.96825E-06
               53.1695             5.31695E-09        8.9956E-06 
               53.9695             5.39695E-09        9.02222E-06
               54.7695             5.47695E-09        9.04818E-06
               55.5695             5.55695E-09        9.07352E-06
               56.3695             5.63695E-09        9.09829E-06
               57.1695             5.71695E-09        9.1225E-06 
               57.9695             5.79695E-09        9.14619E-06
               58.7695             5.87695E-09        9.16939E-06
               59.5695             5.95695E-09        9.1921E-06 
               60.3695             6.03695E-09        9.52931E-06
               61.1695             6.11695E-09       10.3944E-06 
               61.9695             6.19695E-09       11.3652E-06 
               62.7695             6.27695E-09       12.4725E-06 
               63.5695             6.35695E-09       13.9361E-06 
               64.3695             6.43695E-09       15.3552E-06 
               65.1695             6.51695E-09       16.6978E-06 
               65.9695             6.59695E-09       17.9538E-06 
               66.7695             6.67695E-09       19.1193E-06 
               67.5695             6.75695E-09       20.1915E-06 
               68.3695             6.83695E-09       21.1637E-06 
               69.1695             6.91695E-09       22.0395E-06 
               69.9695             6.99695E-09       22.8311E-06 
               70.7695             7.07695E-09       23.5415E-06 
               71.5695             7.15695E-09       24.1746E-06 
               72.3695             7.23695E-09       24.7467E-06 
               73.1695             7.31695E-09       25.2694E-06 
               73.9695             7.39695E-09       25.7485E-06 
               74.7695             7.47695E-09       26.1877E-06 
               75.5695             7.55695E-09       26.5911E-06 
               76.3695             7.63695E-09       26.9636E-06 
               77.1695             7.71695E-09       27.3093E-06 
               77.9695             7.79695E-09       27.6315E-06 
               78.7695             7.87695E-09       27.9335E-06 
               79.5695             7.95695E-09       28.2178E-06 
               80.3695             8.03695E-09       28.4855E-06 
               81.1695             8.11695E-09       28.7375E-06 
               81.9695             8.19695E-09       28.9754E-06 
               82.7695             8.27695E-09       29.2009E-06 
               83.5695             8.35695E-09       29.4153E-06 
               84.3695             8.43695E-09       29.6198E-06 
               85.1695             8.51695E-09       29.8151E-06 
               85.9695             8.59695E-09       30.0018E-06 
               86.7695             8.67695E-09       30.1805E-06 
               87.5695             8.75695E-09       30.3517E-06 
               88.3695             8.83695E-09       30.5158E-06 
               89.1695             8.91695E-09       30.6734E-06 
               89.9695             8.99695E-09       30.8249E-06 
               90.7695             9.07695E-09       30.9706E-06 
               91.5695             9.15695E-09       31.111E-06  
               92.3695             9.23695E-09       31.2465E-06 
               93.1695             9.31695E-09       31.3775E-06 
               93.9695             9.39695E-09       31.5044E-06 
               94.7695             9.47695E-09       31.6276E-06 
               95.5695             9.55695E-09       31.7471E-06 
               96.3695             9.63695E-09       31.8632E-06 
               97.1695             9.71695E-09       31.9761E-06 
               97.9695             9.79695E-09       32.086E-06  
               98.7695             9.87695E-09       32.1929E-06 
               99.5695             9.95695E-09       32.297E-06  
              100.37              10.037E-09         32.3985E-06 
              101.17              10.117E-09         32.4976E-06 
              101.97              10.197E-09         32.5943E-06 
              102.77              10.277E-09         32.6888E-06 
              103.57              10.357E-09         32.7811E-06 
              104.37              10.437E-09         32.8714E-06 
              105.17              10.517E-09         32.9598E-06 
              105.97              10.597E-09         33.0464E-06 
              106.77              10.677E-09         33.1311E-06 
              107.57              10.757E-09         33.2142E-06 
              108.37              10.837E-09         33.2956E-06 
              109.17              10.917E-09         33.3754E-06 
              109.97              10.997E-09         33.4537E-06 
              110.77              11.077E-09         33.5305E-06 
              111.57              11.157E-09         33.6327E-06 
              112.37              11.237E-09         33.934E-06  
              113.17              11.317E-09         34.2204E-06 
              113.97              11.397E-09         34.6093E-06 
              114.77              11.477E-09         35.1749E-06 
              115.57              11.557E-09         35.7161E-06 
              116.37              11.637E-09         36.2181E-06 
              117.17              11.717E-09         36.6693E-06 
              117.97              11.797E-09         37.1437E-06 
              118.77              11.877E-09         37.8546E-06 
              119.57              11.957E-09         38.7591E-06 
              120.37              12.037E-09         39.6146E-06 
              121.17              12.117E-09         40.4076E-06 
              121.97              12.197E-09         41.1422E-06 
              122.77              12.277E-09         41.8199E-06 
              123.57              12.357E-09         42.443E-06  
              124.37              12.437E-09         43.0174E-06 
              125.17              12.517E-09         43.5425E-06 
              125.97              12.597E-09         44.0139E-06 
              126.77              12.677E-09         44.4387E-06 
              127.57              12.757E-09         44.826E-06  
              128.37              12.837E-09         45.18E-06   
              129.17              12.917E-09         45.5051E-06 
              129.97              12.997E-09         45.8048E-06 
              130.77              13.077E-09         46.0816E-06 
              131.57              13.157E-09         46.3382E-06 
              132.37              13.237E-09         46.5775E-06 
              133.17              13.317E-09         46.8015E-06 
              133.97              13.397E-09         47.0121E-06 
              134.77              13.477E-09         47.2111E-06 
              135.57              13.557E-09         47.3995E-06 
              136.37              13.637E-09         47.5783E-06 
              137.17              13.717E-09         47.7486E-06 
              137.97              13.797E-09         47.9115E-06 
              138.77              13.877E-09         48.0679E-06 
              139.57              13.957E-09         48.2187E-06 
              140.37              14.037E-09         48.3646E-06 
              141.17              14.117E-09         48.5062E-06 
              141.97              14.197E-09         48.6439E-06 
              142.77              14.277E-09         48.7779E-06 
              143.57              14.357E-09         48.9086E-06 
              144.37              14.437E-09         49.0361E-06 
              145.17              14.517E-09         49.1606E-06 
              145.97              14.597E-09         49.2822E-06 
              146.77              14.677E-09         49.4012E-06 
              147.57              14.757E-09         49.5177E-06 
              148.37              14.837E-09         49.6316E-06 
              149.17              14.917E-09         49.7432E-06 
              149.97              14.997E-09         49.8526E-06 
              150.77              15.077E-09         49.9599E-06 
              151.57              15.157E-09         50.0653E-06 
              152.37              15.237E-09         50.1687E-06 
              153.17              15.317E-09         50.2702E-06 
              153.97              15.397E-09         50.3701E-06 
              154.77              15.477E-09         50.4684E-06 
              155.57              15.557E-09         50.5653E-06 
              156.37              15.637E-09         50.6607E-06 
              157.17              15.717E-09         50.7549E-06 
              157.97              15.797E-09         50.8478E-06 
              158.77              15.877E-09         50.9393E-06 
              159.57              15.957E-09         51.0294E-06 
              160.37              16.037E-09         51.1183E-06 
              161.17              16.117E-09         51.2062E-06 
              161.97              16.197E-09         51.293E-06  
              162.77              16.277E-09         51.3787E-06 
              163.57              16.357E-09         51.4634E-06 
              164.37              16.437E-09         51.5469E-06 
              165.17              16.517E-09         51.6295E-06 
              165.97              16.597E-09         51.7113E-06 
              166.77              16.677E-09         51.7923E-06 
              167.57              16.757E-09         51.8727E-06 
              168.37              16.837E-09         51.9524E-06 
              169.17              16.917E-09         52.0313E-06 
              169.97              16.997E-09         52.1094E-06 
              170.77              17.077E-09         52.187E-06  
              171.57              17.157E-09         52.264E-06  
              172.37              17.237E-09         52.3404E-06 
              173.17              17.317E-09         52.4163E-06 
              173.97              17.397E-09         52.4916E-06 
              174.77              17.477E-09         52.5664E-06 
              175.57              17.557E-09         52.6407E-06 
              176.37              17.637E-09         52.7146E-06 
              177.17              17.717E-09         52.7881E-06 
              177.97              17.797E-09         52.8611E-06 
              178.77              17.877E-09         52.9336E-06 
              179.57              17.957E-09         53.0057E-06 
              180.37              18.037E-09         53.0773E-06 
              181.17              18.117E-09         53.1484E-06 
              181.97              18.197E-09         53.2189E-06 
              182.77              18.277E-09         53.2889E-06 
              183.57              18.357E-09         53.3584E-06 
              184.37              18.437E-09         53.4275E-06 
              185.17              18.517E-09         53.4962E-06 
              185.97              18.597E-09         53.5644E-06 
              186.77              18.677E-09         53.6323E-06 
              187.57              18.757E-09         53.6998E-06 
              188.37              18.837E-09         53.7669E-06 
              189.17              18.917E-09         53.8337E-06 
              189.97              18.997E-09         53.9002E-06 
              190.77              19.077E-09         53.9662E-06 
              191.57              19.157E-09         54.032E-06  
              192.37              19.237E-09         54.0974E-06 
              193.17              19.317E-09         54.1626E-06 
              193.97              19.397E-09         54.2276E-06 
              194.77              19.477E-09         54.2923E-06 
              195.57              19.557E-09         54.3567E-06 
              196.37              19.637E-09         54.4209E-06 
              197.17              19.717E-09         54.4848E-06 
              197.97              19.797E-09         54.5484E-06 
              198.77              19.877E-09         54.6118E-06 
              199.57              19.957E-09         54.6752E-06 
              200.37              20.037E-09         54.7382E-06 
              201.17              20.117E-09         54.8011E-06 
              201.97              20.197E-09         54.8641E-06 
              202.77              20.277E-09         54.9271E-06 
              203.57              20.357E-09         54.9899E-06 
              204.37              20.437E-09         55.0525E-06 
              205.17              20.517E-09         55.1148E-06 
              205.97              20.597E-09         55.177E-06  
              206.77              20.677E-09         55.2389E-06 
              207.57              20.757E-09         55.3006E-06 
              208.37              20.837E-09         55.3621E-06 
              209.17              20.917E-09         55.4236E-06 
              209.97              20.997E-09         55.4849E-06 
              210.77              21.077E-09         55.5461E-06 
              211.57              21.157E-09         55.6072E-06 
              212.37              21.237E-09         55.6682E-06 
              213.17              21.317E-09         55.7292E-06 
              213.97              21.397E-09         55.7903E-06 
              214.77              21.477E-09         55.8516E-06 
              215.57              21.557E-09         55.9128E-06 
              216.37              21.637E-09         55.9741E-06 
              217.17              21.717E-09         56.0355E-06 
              217.97              21.797E-09         56.0967E-06 
              218.77              21.877E-09         56.158E-06  
              219.57              21.957E-09         56.5732E-06 
              220.37              22.037E-09         57.0441E-06 
              221.17              22.117E-09         57.4855E-06 
              221.97              22.197E-09         57.9042E-06 
              222.77              22.277E-09         58.3008E-06 
              223.57              22.357E-09         58.674E-06  
              224.37              22.437E-09         59.019E-06  
              225.17              22.517E-09         59.3318E-06 
              225.97              22.597E-09         59.6069E-06 
              226.77              22.677E-09         59.8479E-06 
              227.57              22.757E-09         60.063E-06  
              228.37              22.837E-09         60.2579E-06 
