
                  X             Displacement          Force      

                0.                -0.                 0.         
                1.E-03           100.E-15             1.08566E-09
                2.E-03           200.E-15           679.41E-12   
                3.5E-03          350.E-15            67.6342E-12 
                5.75E-03         575.E-15             5.33598E-12
                9.125E-03        912.5E-15          524.07E-15   
               14.1875E-03         1.41875E-12       52.3466E-15 
               21.7812E-03         2.17813E-12        5.23341E-15
               33.1719E-03         3.31719E-12      523.388E-18  
               50.2578E-03         5.02578E-12       52.3371E-18 
               75.8867E-03         7.58867E-12        5.23344E-18
              114.33E-03          11.433E-12        523.285E-21  
              171.995E-03         17.1995E-12        52.3247E-21 
              258.493E-03         25.8493E-12         5.23194E-21
              388.239E-03         38.8239E-12       523.123E-24  
              582.859E-03         58.2859E-12        52.302E-24  
              874.788E-03         87.4788E-12         5.22867E-24
                1.31268          131.268E-12        522.639E-27  
                1.96952          196.952E-12         52.2296E-27 
                2.86952          286.952E-12          5.21827E-27
                3.76952          376.952E-12        521.357E-30  
                4.66952          466.952E-12         52.0888E-30 
                5.56952          556.952E-12          5.20418E-30
                6.46952          646.952E-12        519.949E-33  
                7.36952          736.952E-12         51.948E-33  
                8.26952          826.952E-12          5.19011E-33
                9.16952          916.952E-12        518.541E-36  
               10.0695             1.00695E-09      487.811E-09  
               10.9695             1.09695E-09        1.30416E-06
               11.8695             1.18695E-09        2.11991E-06
               12.7695             1.27695E-09        2.8518E-06 
               13.6695             1.36695E-09        3.38925E-06
               14.5695             1.45695E-09        3.74377E-06
               15.4695             1.54695E-09        4.05374E-06
               16.3695             1.63695E-09        4.33799E-06
               17.2695             1.72695E-09        4.58892E-06
               18.1695             1.81695E-09        4.81486E-06
               19.0695             1.90695E-09        5.02635E-06
               19.9695             1.99695E-09        5.22885E-06
               20.8695             2.08695E-09        5.42441E-06
               21.7695             2.17695E-09        5.61366E-06
               22.6695             2.26695E-09        5.79669E-06
               23.5695             2.35695E-09        5.97353E-06
               24.4695             2.44695E-09        6.14437E-06
               25.3695             2.53695E-09        6.30843E-06
               26.2695             2.62695E-09        6.46561E-06
               27.1695             2.71695E-09        6.61513E-06
               28.0695             2.80695E-09        6.75802E-06
               28.9695             2.89695E-09        6.8946E-06 
               29.8695             2.98695E-09        7.02439E-06
               30.7695             3.07695E-09        7.14751E-06
               31.6695             3.16695E-09        7.26445E-06
               32.5695             3.25695E-09        7.37515E-06
               33.4695             3.34695E-09        7.48E-06   
               34.3695             3.43695E-09        7.57889E-06
               35.2695             3.52695E-09        7.67161E-06
               36.1695             3.61695E-09        7.75881E-06
               37.0695             3.70695E-09        7.84116E-06
               37.9695             3.79695E-09        7.91825E-06
               38.8695             3.88695E-09        7.99065E-06
               39.7695             3.97695E-09        8.05927E-06
               40.6695             4.06695E-09        8.12478E-06
               41.5695             4.15695E-09        8.1876E-06 
               42.4695             4.24695E-09        8.24773E-06
               43.3695             4.33695E-09        8.30505E-06
               44.2695             4.42695E-09        8.36008E-06
               45.1695             4.51695E-09        8.41262E-06
               46.0695             4.60695E-09        8.46287E-06
               46.9695             4.69695E-09        8.51087E-06
               47.8695             4.78695E-09        8.55687E-06
               48.7695             4.87695E-09        8.60144E-06
               49.6695             4.96695E-09        8.64467E-06
               50.5695             5.05695E-09        8.68688E-06
               51.4695             5.14695E-09        8.7282E-06 
               52.3695             5.23695E-09        8.76868E-06
               53.2695             5.32695E-09        8.80835E-06
               54.1695             5.41695E-09        8.84724E-06
               55.0695             5.50695E-09        8.88534E-06
               55.9695             5.59695E-09        8.92269E-06
               56.8695             5.68695E-09        8.95931E-06
               57.7695             5.77695E-09        8.99525E-06
               58.6695             5.86695E-09        9.03055E-06
               59.5695             5.95695E-09        9.06526E-06
               60.4695             6.04695E-09        9.09942E-06
               61.3695             6.13695E-09       10.4263E-06 
               62.2695             6.22695E-09       12.1274E-06 
               63.1695             6.31695E-09       13.7184E-06 
               64.0695             6.40695E-09       15.2303E-06 
               64.9695             6.49695E-09       16.6524E-06 
               65.8695             6.58695E-09       17.9611E-06 
               66.7695             6.67695E-09       19.1566E-06 
               67.6695             6.76695E-09       20.227E-06  
               68.5695             6.85695E-09       21.1823E-06 
               69.4695             6.94695E-09       22.0252E-06 
               70.3695             7.03695E-09       22.7727E-06 
               71.2695             7.12695E-09       23.442E-06  
               72.1695             7.21695E-09       24.0463E-06 
               73.0695             7.30695E-09       24.5961E-06 
               73.9695             7.39695E-09       25.0995E-06 
               74.8695             7.48695E-09       25.5638E-06 
               75.7695             7.57695E-09       25.9952E-06 
               76.6695             7.66695E-09       26.398E-06  
               77.5695             7.75695E-09       26.7764E-06 
               78.4695             7.84695E-09       27.1323E-06 
               79.3695             7.93695E-09       27.4686E-06 
               80.2695             8.02695E-09       27.7887E-06 
               81.1695             8.11695E-09       28.0946E-06 
               82.0695             8.20695E-09       28.3874E-06 
               82.9695             8.29695E-09       28.6676E-06 
               83.8695             8.38695E-09       28.9356E-06 
               84.7695             8.47695E-09       29.1928E-06 
               85.6695             8.56695E-09       29.4401E-06 
               86.5695             8.65695E-09       29.6779E-06 
               87.4695             8.74695E-09       29.9063E-06 
               88.3695             8.83695E-09       30.1253E-06 
               89.2695             8.92695E-09       30.3345E-06 
               90.1695             9.01695E-09       30.5355E-06 
               91.0695             9.10695E-09       30.7286E-06 
               91.9695             9.19695E-09       30.9142E-06 
               92.8695             9.28695E-09       31.0924E-06 
               93.7695             9.37695E-09       31.2643E-06 
               94.6695             9.46695E-09       31.4305E-06 
               95.5695             9.55695E-09       31.5919E-06 
               96.4695             9.64695E-09       31.7485E-06 
               97.3695             9.73695E-09       31.9013E-06 
               98.2695             9.82695E-09       32.0505E-06 
               99.1695             9.91695E-09       32.1964E-06 
              100.07              10.007E-09         32.3391E-06 
              100.97              10.097E-09         32.4788E-06 
              101.87              10.187E-09         32.6157E-06 
              102.77              10.277E-09         32.7499E-06 
              103.67              10.367E-09         32.8818E-06 
              104.57              10.457E-09         33.0114E-06 
              105.47              10.547E-09         33.139E-06  
              106.37              10.637E-09         33.2645E-06 
              107.27              10.727E-09         33.3881E-06 
              108.17              10.817E-09         33.5098E-06 
              109.07              10.907E-09         33.6296E-06 
              109.97              10.997E-09         33.7474E-06 
              110.87              11.087E-09         33.8634E-06 
              111.77              11.177E-09         33.9777E-06 
              112.67              11.267E-09         34.0904E-06 
              113.57              11.357E-09         34.2647E-06 
              114.47              11.447E-09         34.6155E-06 
              115.37              11.537E-09         35.2125E-06 
              116.27              11.627E-09         35.8743E-06 
              117.17              11.717E-09         36.4875E-06 
              118.07              11.807E-09         37.2083E-06 
              118.97              11.897E-09         38.2442E-06 
              119.87              11.987E-09         39.306E-06  
              120.77              12.077E-09         40.2955E-06 
              121.67              12.167E-09         41.2085E-06 
              122.57              12.257E-09         42.0274E-06 
              123.47              12.347E-09         42.7553E-06 
              124.37              12.437E-09         43.4083E-06 
              125.27              12.527E-09         44.E-06     
              126.17              12.617E-09         44.54E-06   
              127.07              12.707E-09         45.0333E-06 
              127.97              12.797E-09         45.4838E-06 
              128.87              12.887E-09         45.8961E-06 
              129.77              12.977E-09         46.2752E-06 
              130.67              13.067E-09         46.6252E-06 
              131.57              13.157E-09         46.9499E-06 
              132.47              13.247E-09         47.2538E-06 
              133.37              13.337E-09         47.5405E-06 
              134.27              13.427E-09         47.8127E-06 
              135.17              13.517E-09         48.0722E-06 
              136.07              13.607E-09         48.3194E-06 
              136.97              13.697E-09         48.5548E-06 
              137.87              13.787E-09         48.7789E-06 
              138.77              13.877E-09         48.9932E-06 
              139.67              13.967E-09         49.1991E-06 
              140.57              14.057E-09         49.3979E-06 
              141.47              14.147E-09         49.5906E-06 
              142.37              14.237E-09         49.7777E-06 
              143.27              14.327E-09         49.9599E-06 
              144.17              14.417E-09         50.1381E-06 
              145.07              14.507E-09         50.3126E-06 
              145.97              14.597E-09         50.4837E-06 
              146.87              14.687E-09         50.6514E-06 
              147.77              14.777E-09         50.8158E-06 
              148.67              14.867E-09         50.9771E-06 
              149.57              14.957E-09         51.1354E-06 
              150.47              15.047E-09         51.2905E-06 
              151.37              15.137E-09         51.4429E-06 
              152.27              15.227E-09         51.5926E-06 
              153.17              15.317E-09         51.7398E-06 
              154.07              15.407E-09         51.8847E-06 
              154.97              15.497E-09         52.0276E-06 
              155.87              15.587E-09         52.1686E-06 
              156.77              15.677E-09         52.3076E-06 
              157.67              15.767E-09         52.4447E-06 
              158.57              15.857E-09         52.58E-06   
              159.47              15.947E-09         52.7137E-06 
              160.37              16.037E-09         52.8457E-06 
              161.27              16.127E-09         52.9761E-06 
              162.17              16.217E-09         53.1048E-06 
              163.07              16.307E-09         53.2319E-06 
              163.97              16.397E-09         53.3575E-06 
              164.87              16.487E-09         53.4815E-06 
              165.77              16.577E-09         53.6042E-06 
              166.67              16.667E-09         53.7256E-06 
              167.57              16.757E-09         53.8456E-06 
              168.47              16.847E-09         53.9645E-06 
              169.37              16.937E-09         54.082E-06  
              170.27              17.027E-09         54.1983E-06 
              171.17              17.117E-09         54.3134E-06 
              172.07              17.207E-09         54.4275E-06 
              172.97              17.297E-09         54.5406E-06 
              173.87              17.387E-09         54.6528E-06 
              174.77              17.477E-09         54.7639E-06 
              175.67              17.567E-09         54.8739E-06 
              176.57              17.657E-09         54.9829E-06 
              177.47              17.747E-09         55.0909E-06 
              178.37              17.837E-09         55.198E-06  
              179.27              17.927E-09         55.3043E-06 
              180.17              18.017E-09         55.4097E-06 
              181.07              18.107E-09         55.5144E-06 
              181.97              18.197E-09         55.6183E-06 
              182.87              18.287E-09         55.7215E-06 
              183.77              18.377E-09         55.824E-06  
              184.67              18.467E-09         55.9259E-06 
              185.57              18.557E-09         56.0269E-06 
              186.47              18.647E-09         56.1272E-06 
              187.37              18.737E-09         56.2267E-06 
              188.27              18.827E-09         56.3257E-06 
              189.17              18.917E-09         56.4241E-06 
              190.07              19.007E-09         56.5217E-06 
              190.97              19.097E-09         56.6188E-06 
              191.87              19.187E-09         56.7152E-06 
              192.77              19.277E-09         56.8111E-06 
              193.67              19.367E-09         56.9063E-06 
              194.57              19.457E-09         57.0011E-06 
              195.47              19.547E-09         57.0954E-06 
              196.37              19.637E-09         57.1892E-06 
              197.27              19.727E-09         57.2827E-06 
              198.17              19.817E-09         57.3759E-06 
              199.07              19.907E-09         57.4685E-06 
              199.97              19.997E-09         57.5607E-06 
              200.87              20.087E-09         57.6525E-06 
              201.77              20.177E-09         57.744E-06  
              202.67              20.267E-09         57.8351E-06 
              203.57              20.357E-09         57.9258E-06 
              204.47              20.447E-09         58.0161E-06 
              205.37              20.537E-09         58.1059E-06 
              206.27              20.627E-09         58.1954E-06 
              207.17              20.717E-09         58.2846E-06 
              208.07              20.807E-09         58.3734E-06 
              208.97              20.897E-09         58.4619E-06 
              209.87              20.987E-09         58.5503E-06 
              210.77              21.077E-09         58.6384E-06 
              211.67              21.167E-09         58.7262E-06 
              212.57              21.257E-09         58.8137E-06 
              213.47              21.347E-09         58.9009E-06 
              214.37              21.437E-09         58.9876E-06 
              215.27              21.527E-09         59.074E-06  
              216.17              21.617E-09         59.1599E-06 
              217.07              21.707E-09         59.2455E-06 
              217.97              21.797E-09         59.3308E-06 
              218.87              21.887E-09         59.4159E-06 
              219.77              21.977E-09         59.5007E-06 
              220.67              22.067E-09         59.5853E-06 
              221.57              22.157E-09         59.6697E-06 
              222.47              22.247E-09         59.7538E-06 
              223.37              22.337E-09         59.8378E-06 
              224.27              22.427E-09         59.9217E-06 
              225.17              22.517E-09         60.0055E-06 
              226.07              22.607E-09         60.0894E-06 
              226.97              22.697E-09         60.1732E-06 
              227.87              22.787E-09         60.2572E-06 
              228.77              22.877E-09         60.3407E-06 
              229.67              22.967E-09         60.424E-06  
              230.57              23.057E-09         60.5072E-06 
              231.47              23.147E-09         60.5904E-06 
              232.37              23.237E-09         60.6735E-06 
              233.27              23.327E-09         60.7749E-06 
              234.17              23.417E-09         61.2386E-06 
              235.07              23.507E-09         61.7334E-06 
              235.97              23.597E-09         62.193E-06  
              236.87              23.687E-09         62.959E-06  
              237.77              23.777E-09         63.7632E-06 
              238.67              23.867E-09         64.5046E-06 
              239.57              23.957E-09         65.1963E-06 
              240.47              24.047E-09         65.8353E-06 
              241.37              24.137E-09         66.417E-06  
              242.27              24.227E-09         66.9501E-06 
              243.17              24.317E-09         67.437E-06  
              244.07              24.407E-09         67.8787E-06 
              244.97              24.497E-09         68.2823E-06 
              245.87              24.587E-09         68.6533E-06 
              246.77              24.677E-09         68.9963E-06 
              247.67              24.767E-09         69.3146E-06 
              248.57              24.857E-09         69.6098E-06 
              249.47              24.947E-09         69.8835E-06 
              250.37              25.037E-09         70.138E-06  
              251.27              25.127E-09         70.3745E-06 
              252.17              25.217E-09         70.5945E-06 
              253.07              25.307E-09         70.8004E-06 
              253.97              25.397E-09         70.9945E-06 
              254.87              25.487E-09         71.1786E-06 
              255.77              25.577E-09         71.3543E-06 
              256.67              25.667E-09         71.5232E-06 
