"displacement,mm","force,kN","force,N"
-0.0,0.0,0.0
1e-13,1.08566e-12,1.08566e-09
2e-13,6.7941e-13,6.7941e-10
3.5e-13,6.76342e-14,6.76342e-11
5.75e-13,5.3359799999999996e-15,5.33598e-12
9.125e-13,5.240700000000001e-16,5.2407e-13
1.41875e-12,5.23466e-17,5.23466e-14
2.17813e-12,5.23341e-18,5.23341e-15
3.31719e-12,5.23388e-19,5.23388e-16
5.02578e-12,5.2337100000000006e-20,5.23371e-17
7.58867e-12,5.23344e-21,5.23344e-18
1.1433e-11,5.23285e-22,5.23285e-19
1.71995e-11,5.23247e-23,5.23247e-20
2.58493e-11,5.231940000000001e-24,5.23194e-21
3.88239e-11,5.23123e-25,5.23123e-22
5.82859e-11,5.230200000000001e-26,5.2302e-23
8.74788e-11,5.2286699999999996e-27,5.22867e-24
1.31268e-10,5.22639e-28,5.22639e-25
1.96952e-10,5.22296e-29,5.22296e-26
2.86952e-10,5.2182700000000005e-30,5.21827e-27
3.76952e-10,5.21357e-31,5.21357e-28
4.66952e-10,5.20888e-32,5.20888e-29
5.56952e-10,5.20418e-33,5.20418e-30
6.46952e-10,5.19949e-34,5.19949e-31
7.36952e-10,5.1948e-35,5.1948e-32
8.26952e-10,5.1901100000000004e-36,5.19011e-33
9.16952e-10,5.18541e-37,5.18541e-34
1.00695e-09,4.87811e-10,4.87811e-07
1.09695e-09,1.3041600000000002e-09,1.30416e-06
1.18695e-09,2.11991e-09,2.11991e-06
1.27695e-09,2.8518e-09,2.8518e-06
1.36695e-09,3.3892500000000005e-09,3.38925e-06
1.45695e-09,3.74377e-09,3.74377e-06
1.54695e-09,4.05374e-09,4.05374e-06
1.63695e-09,4.33799e-09,4.33799e-06
1.72695e-09,4.58892e-09,4.58892e-06
1.81695e-09,4.8148600000000005e-09,4.81486e-06
1.90695e-09,5.02635e-09,5.02635e-06
1.99695e-09,5.22885e-09,5.22885e-06
2.08695e-09,5.42441e-09,5.42441e-06
2.17695e-09,5.61366e-09,5.61366e-06
2.26695e-09,5.79669e-09,5.79669e-06
2.35695e-09,5.97353e-09,5.97353e-06
2.44695e-09,6.14437e-09,6.14437e-06
2.53695e-09,6.30843e-09,6.30843e-06
2.62695e-09,6.46561e-09,6.46561e-06
2.71695e-09,6.61513e-09,6.61513e-06
2.80695e-09,6.75802e-09,6.75802e-06
2.89695e-09,6.8946000000000006e-09,6.8946e-06
2.98695e-09,7.02439e-09,7.02439e-06
3.07695e-09,7.14751e-09,7.14751e-06
3.16695e-09,7.264450000000001e-09,7.26445e-06
3.25695e-09,7.3751500000000005e-09,7.37515e-06
3.34695e-09,7.48e-09,7.48e-06
3.43695e-09,7.57889e-09,7.57889e-06
3.52695e-09,7.67161e-09,7.67161e-06
3.61695e-09,7.758810000000001e-09,7.75881e-06
3.70695e-09,7.84116e-09,7.84116e-06
3.79695e-09,7.91825e-09,7.91825e-06
3.88695e-09,7.99065e-09,7.99065e-06
3.97695e-09,8.059270000000001e-09,8.05927e-06
4.06695e-09,8.124780000000001e-09,8.12478e-06
4.15695e-09,8.1876e-09,8.1876e-06
4.24695e-09,8.247729999999999e-09,8.24773e-06
4.33695e-09,8.30505e-09,8.30505e-06
4.42695e-09,8.36008e-09,8.36008e-06
4.51695e-09,8.41262e-09,8.41262e-06
4.60695e-09,8.46287e-09,8.46287e-06
4.69695e-09,8.510869999999999e-09,8.51087e-06
4.78695e-09,8.55687e-09,8.55687e-06
4.87695e-09,8.60144e-09,8.60144e-06
4.96695e-09,8.64467e-09,8.64467e-06
5.05695e-09,8.68688e-09,8.68688e-06
5.14695e-09,8.728200000000001e-09,8.7282e-06
5.23695e-09,8.76868e-09,8.76868e-06
5.32695e-09,8.808350000000001e-09,8.80835e-06
5.41695e-09,8.84724e-09,8.84724e-06
5.50695e-09,8.88534e-09,8.88534e-06
5.59695e-09,8.92269e-09,8.92269e-06
5.68695e-09,8.95931e-09,8.95931e-06
5.77695e-09,8.99525e-09,8.99525e-06
5.86695e-09,9.03055e-09,9.03055e-06
5.95695e-09,9.06526e-09,9.06526e-06
6.04695e-09,9.099419999999999e-09,9.09942e-06
6.13695e-09,1.04263e-08,1.04263e-05
6.22695e-09,1.21274e-08,1.21274e-05
6.31695e-09,1.3718400000000001e-08,1.37184e-05
6.40695e-09,1.52303e-08,1.52303e-05
6.49695e-09,1.66524e-08,1.66524e-05
6.58695e-09,1.79611e-08,1.79611e-05
6.67695e-09,1.91566e-08,1.91566e-05
6.76695e-09,2.0227000000000003e-08,2.0227e-05
6.85695e-09,2.11823e-08,2.11823e-05
6.94695e-09,2.20252e-08,2.20252e-05
7.03695e-09,2.27727e-08,2.27727e-05
7.12695e-09,2.3442e-08,2.3442e-05
7.21695e-09,2.4046300000000002e-08,2.40463e-05
7.30695e-09,2.45961e-08,2.45961e-05
7.39695e-09,2.50995e-08,2.50995e-05
7.48695e-09,2.5563800000000002e-08,2.55638e-05
7.57695e-09,2.5995200000000003e-08,2.59952e-05
7.66695e-09,2.6398000000000003e-08,2.6398e-05
7.75695e-09,2.67764e-08,2.67764e-05
7.84695e-09,2.71323e-08,2.71323e-05
7.93695e-09,2.74686e-08,2.74686e-05
8.02695e-09,2.7788700000000002e-08,2.77887e-05
8.11695e-09,2.80946e-08,2.80946e-05
8.20695e-09,2.83874e-08,2.83874e-05
8.29695e-09,2.86676e-08,2.86676e-05
8.38695e-09,2.8935600000000003e-08,2.89356e-05
8.47695e-09,2.91928e-08,2.91928e-05
8.56695e-09,2.94401e-08,2.94401e-05
8.65695e-09,2.96779e-08,2.96779e-05
8.74695e-09,2.99063e-08,2.99063e-05
8.83695e-09,3.01253e-08,3.01253e-05
8.92695e-09,3.03345e-08,3.03345e-05
9.01695e-09,3.05355e-08,3.05355e-05
9.10695e-09,3.07286e-08,3.07286e-05
9.19695e-09,3.0914200000000006e-08,3.09142e-05
9.28695e-09,3.10924e-08,3.10924e-05
9.37695e-09,3.12643e-08,3.12643e-05
9.46695e-09,3.14305e-08,3.14305e-05
9.55695e-09,3.15919e-08,3.15919e-05
9.64695e-09,3.17485e-08,3.17485e-05
9.73695e-09,3.19013e-08,3.19013e-05
9.82695e-09,3.20505e-08,3.20505e-05
9.91695e-09,3.21964e-08,3.21964e-05
1.0007e-08,3.2339099999999995e-08,3.23391e-05
1.0097e-08,3.24788e-08,3.24788e-05
1.0187e-08,3.26157e-08,3.26157e-05
1.0277e-08,3.2749900000000007e-08,3.27499e-05
1.0367e-08,3.28818e-08,3.28818e-05
1.0457e-08,3.30114e-08,3.30114e-05
1.0547e-08,3.3139e-08,3.3139e-05
1.0637e-08,3.32645e-08,3.32645e-05
1.0727e-08,3.33881e-08,3.33881e-05
1.0817e-08,3.35098e-08,3.35098e-05
1.0907e-08,3.36296e-08,3.36296e-05
1.0997e-08,3.37474e-08,3.37474e-05
1.1087e-08,3.38634e-08,3.38634e-05
1.1177e-08,3.39777e-08,3.39777e-05
1.1267e-08,3.4090400000000005e-08,3.40904e-05
1.1357e-08,3.42647e-08,3.42647e-05
1.1447e-08,3.46155e-08,3.46155e-05
1.1537e-08,3.5212500000000005e-08,3.52125e-05
1.1627e-08,3.5874300000000004e-08,3.58743e-05
1.1717e-08,3.64875e-08,3.64875e-05
1.1807e-08,3.72083e-08,3.72083e-05
1.1897e-08,3.8244200000000006e-08,3.82442e-05
1.1987e-08,3.9306e-08,3.9306e-05
1.2077e-08,4.02955e-08,4.02955e-05
1.2167e-08,4.1208499999999995e-08,4.12085e-05
1.2257e-08,4.20274e-08,4.20274e-05
1.2347e-08,4.2755300000000004e-08,4.27553e-05
1.2437e-08,4.3408300000000004e-08,4.34083e-05
1.2527e-08,4.4e-08,4.4e-05
1.2617e-08,4.454e-08,4.454e-05
1.2707e-08,4.50333e-08,4.50333e-05
1.2797e-08,4.54838e-08,4.54838e-05
1.2887e-08,4.58961e-08,4.58961e-05
1.2977e-08,4.62752e-08,4.62752e-05
1.3067e-08,4.66252e-08,4.66252e-05
1.3157e-08,4.69499e-08,4.69499e-05
1.3247e-08,4.7253799999999997e-08,4.72538e-05
1.3337e-08,4.75405e-08,4.75405e-05
1.3427e-08,4.7812699999999996e-08,4.78127e-05
1.3517e-08,4.80722e-08,4.80722e-05
1.3607e-08,4.83194e-08,4.83194e-05
1.3697e-08,4.8554799999999996e-08,4.85548e-05
1.3787e-08,4.8778900000000004e-08,4.87789e-05
1.3877e-08,4.89932e-08,4.89932e-05
1.3967e-08,4.91991e-08,4.91991e-05
1.4057e-08,4.93979e-08,4.93979e-05
1.4147e-08,4.95906e-08,4.95906e-05
1.4237e-08,4.97777e-08,4.97777e-05
1.4327e-08,4.9959900000000007e-08,4.99599e-05
1.4417e-08,5.01381e-08,5.01381e-05
1.4507e-08,5.03126e-08,5.03126e-05
1.4597e-08,5.04837e-08,5.04837e-05
1.4687e-08,5.06514e-08,5.06514e-05
1.4777e-08,5.0815800000000006e-08,5.08158e-05
1.4867e-08,5.09771e-08,5.09771e-05
1.4957e-08,5.1135399999999996e-08,5.11354e-05
1.5047e-08,5.12905e-08,5.12905e-05
1.5137e-08,5.14429e-08,5.14429e-05
1.5227e-08,5.1592599999999996e-08,5.15926e-05
1.5317e-08,5.17398e-08,5.17398e-05
1.5407e-08,5.18847e-08,5.18847e-05
1.5497e-08,5.2027600000000006e-08,5.20276e-05
1.5587e-08,5.21686e-08,5.21686e-05
1.5677e-08,5.23076e-08,5.23076e-05
1.5767e-08,5.24447e-08,5.24447e-05
1.5857e-08,5.2580000000000005e-08,5.258e-05
1.5947e-08,5.27137e-08,5.27137e-05
1.6037e-08,5.28457e-08,5.28457e-05
1.6127e-08,5.29761e-08,5.29761e-05
1.6217e-08,5.31048e-08,5.31048e-05
1.6307e-08,5.3231900000000004e-08,5.32319e-05
1.6397e-08,5.33575e-08,5.33575e-05
1.6487e-08,5.34815e-08,5.34815e-05
1.6577e-08,5.36042e-08,5.36042e-05
1.6667e-08,5.37256e-08,5.37256e-05
1.6757e-08,5.3845599999999996e-08,5.38456e-05
1.6847e-08,5.39645e-08,5.39645e-05
1.6937e-08,5.4082e-08,5.4082e-05
1.7027e-08,5.41983e-08,5.41983e-05
1.7117e-08,5.43134e-08,5.43134e-05
1.7207e-08,5.44275e-08,5.44275e-05
1.7297e-08,5.45406e-08,5.45406e-05
1.7387e-08,5.46528e-08,5.46528e-05
1.7477e-08,5.47639e-08,5.47639e-05
1.7567e-08,5.487390000000001e-08,5.48739e-05
1.7657e-08,5.49829e-08,5.49829e-05
1.7747e-08,5.50909e-08,5.50909e-05
1.7837e-08,5.5198e-08,5.5198e-05
1.7927e-08,5.53043e-08,5.53043e-05
1.8017e-08,5.54097e-08,5.54097e-05
1.8107e-08,5.55144e-08,5.55144e-05
1.8197e-08,5.5618300000000005e-08,5.56183e-05
1.8287e-08,5.57215e-08,5.57215e-05
1.8377e-08,5.5824e-08,5.5824e-05
1.8467e-08,5.59259e-08,5.59259e-05
1.8557e-08,5.60269e-08,5.60269e-05
1.8647e-08,5.61272e-08,5.61272e-05
1.8737e-08,5.62267e-08,5.62267e-05
1.8827e-08,5.63257e-08,5.63257e-05
1.8917e-08,5.64241e-08,5.64241e-05
1.9007e-08,5.65217e-08,5.65217e-05
1.9097e-08,5.66188e-08,5.66188e-05
1.9187e-08,5.6715200000000006e-08,5.67152e-05
1.9277e-08,5.6811100000000004e-08,5.68111e-05
1.9367e-08,5.69063e-08,5.69063e-05
1.9457e-08,5.70011e-08,5.70011e-05
1.9547e-08,5.7095400000000004e-08,5.70954e-05
1.9637e-08,5.71892e-08,5.71892e-05
1.9727e-08,5.72827e-08,5.72827e-05
1.9817e-08,5.7375900000000005e-08,5.73759e-05
1.9907e-08,5.74685e-08,5.74685e-05
1.9997e-08,5.75607e-08,5.75607e-05
2.0087e-08,5.76525e-08,5.76525e-05
2.0177e-08,5.7744000000000004e-08,5.7744e-05
2.0267e-08,5.78351e-08,5.78351e-05
2.0357e-08,5.79258e-08,5.79258e-05
2.0447e-08,5.80161e-08,5.80161e-05
2.0537e-08,5.8105900000000005e-08,5.81059e-05
2.0627e-08,5.81954e-08,5.81954e-05
2.0717e-08,5.82846e-08,5.82846e-05
2.0807e-08,5.83734e-08,5.83734e-05
2.0897e-08,5.84619e-08,5.84619e-05
2.0987e-08,5.85503e-08,5.85503e-05
2.1077e-08,5.86384e-08,5.86384e-05
2.1167e-08,5.8726200000000003e-08,5.87262e-05
2.1257e-08,5.8813700000000003e-08,5.88137e-05
2.1347e-08,5.89009e-08,5.89009e-05
2.1437e-08,5.89876e-08,5.89876e-05
2.1527e-08,5.9074e-08,5.9074e-05
2.1617e-08,5.91599e-08,5.91599e-05
2.1707e-08,5.92455e-08,5.92455e-05
2.1797e-08,5.93308e-08,5.93308e-05
2.1887e-08,5.94159e-08,5.94159e-05
2.1977e-08,5.95007e-08,5.95007e-05
2.2067e-08,5.9585300000000004e-08,5.95853e-05
2.2157e-08,5.96697e-08,5.96697e-05
2.2247e-08,5.97538e-08,5.97538e-05
2.2337e-08,5.98378e-08,5.98378e-05
2.2427e-08,5.99217e-08,5.99217e-05
2.2517e-08,6.00055e-08,6.00055e-05
2.2607e-08,6.00894e-08,6.00894e-05
2.2697e-08,6.01732e-08,6.01732e-05
2.2787e-08,6.02572e-08,6.02572e-05
2.2877e-08,6.034070000000001e-08,6.03407e-05
2.2967e-08,6.0424e-08,6.0424e-05
2.3057e-08,6.05072e-08,6.05072e-05
2.3147e-08,6.05904e-08,6.05904e-05
2.3237e-08,6.06735e-08,6.06735e-05
2.3327e-08,6.07749e-08,6.07749e-05
2.3417e-08,6.12386e-08,6.12386e-05
2.3507e-08,6.17334e-08,6.17334e-05
2.3597e-08,6.2193e-08,6.2193e-05
2.3687e-08,6.2959e-08,6.2959e-05
2.3777e-08,6.376320000000001e-08,6.37632e-05
2.3867e-08,6.450460000000001e-08,6.45046e-05
2.3957e-08,6.51963e-08,6.51963e-05
2.4047e-08,6.583530000000001e-08,6.58353e-05
2.4137e-08,6.6417e-08,6.6417e-05
2.4227e-08,6.695009999999999e-08,6.69501e-05
2.4317e-08,6.7437e-08,6.7437e-05
2.4407e-08,6.78787e-08,6.78787e-05
2.4497e-08,6.82823e-08,6.82823e-05
2.4587e-08,6.86533e-08,6.86533e-05
2.4677e-08,6.89963e-08,6.89963e-05
2.4767e-08,6.93146e-08,6.93146e-05
2.4857e-08,6.96098e-08,6.96098e-05
2.4947e-08,6.98835e-08,6.98835e-05
2.5037e-08,7.0138e-08,7.0138e-05
2.5127e-08,7.037449999999999e-08,7.03745e-05
2.5217e-08,7.05945e-08,7.05945e-05
2.5307e-08,7.080040000000001e-08,7.08004e-05
2.5397e-08,7.09945e-08,7.09945e-05
2.5487e-08,7.117860000000001e-08,7.11786e-05
2.5577e-08,7.135430000000001e-08,7.13543e-05
2.5667e-08,7.15232e-08,7.15232e-05
2.5757e-08,7.16865e-08,7.16865e-05
2.5847e-08,7.18449e-08,7.18449e-05
2.5937e-08,7.1999e-08,7.1999e-05
2.6027e-08,7.21495e-08,7.21495e-05
2.6117e-08,7.22969e-08,7.22969e-05
2.6207e-08,7.24414e-08,7.24414e-05
2.6297e-08,7.25831e-08,7.25831e-05
2.6387e-08,7.27222e-08,7.27222e-05
2.6477e-08,7.288480000000001e-08,7.28848e-05
2.6567e-08,7.315029999999999e-08,7.31503e-05
2.6657e-08,7.34092e-08,7.34092e-05
2.6747e-08,7.365569999999999e-08,7.36557e-05
2.6837e-08,7.38902e-08,7.38902e-05
2.6927e-08,7.411389999999999e-08,7.41139e-05
2.7017e-08,7.444590000000001e-08,7.44459e-05
2.7107e-08,7.477310000000001e-08,7.47731e-05
2.7197e-08,7.50843e-08,7.50843e-05
2.7287e-08,7.53801e-08,7.53801e-05
2.7377e-08,7.56602e-08,7.56602e-05
2.7467e-08,7.59249e-08,7.59249e-05
2.7557e-08,7.61751e-08,7.61751e-05
2.7647e-08,7.6413e-08,7.6413e-05
2.7737e-08,7.66398e-08,7.66398e-05
2.7827e-08,7.68569e-08,7.68569e-05
2.7917e-08,7.70658e-08,7.70658e-05
2.8007e-08,7.72666e-08,7.72666e-05
2.8097e-08,7.7459e-08,7.7459e-05
2.8187e-08,7.764360000000001e-08,7.76436e-05
2.8277e-08,7.78214e-08,7.78214e-05
2.8367e-08,7.79936e-08,7.79936e-05
2.8457e-08,7.81645e-08,7.81645e-05
2.8547e-08,7.83222e-08,7.83222e-05
2.8637e-08,7.84766e-08,7.84766e-05
2.8727e-08,7.86261e-08,7.86261e-05
2.8817e-08,7.87713e-08,7.87713e-05
2.8907e-08,7.891259999999999e-08,7.89126e-05
2.8997e-08,7.90506e-08,7.90506e-05
2.9087e-08,7.91856e-08,7.91856e-05
2.9177e-08,7.931789999999999e-08,7.93179e-05
2.9267e-08,7.94475e-08,7.94475e-05
2.9357e-08,7.95751e-08,7.95751e-05
2.9447e-08,7.97011e-08,7.97011e-05
2.9537e-08,7.98259e-08,7.98259e-05
2.9627e-08,7.994920000000001e-08,7.99492e-05
2.9717e-08,8.007090000000001e-08,8.00709e-05
2.9807e-08,8.0191e-08,8.0191e-05
2.9897e-08,8.03097e-08,8.03097e-05
2.9987e-08,8.04272e-08,8.04272e-05
3.0077e-08,8.054300000000001e-08,8.0543e-05
3.0167e-08,8.06574e-08,8.06574e-05
3.0257e-08,8.07707e-08,8.07707e-05
3.0347e-08,8.12326e-08,8.12326e-05
3.0437e-08,8.11593e-08,8.11593e-05
3.0527e-08,8.1171e-08,8.1171e-05
3.0617e-08,8.124720000000001e-08,8.12472e-05
3.0707e-08,8.134190000000001e-08,8.13419e-05
3.0797e-08,8.14437e-08,8.14437e-05
3.0887e-08,8.15484e-08,8.15484e-05
3.0977e-08,8.16544e-08,8.16544e-05
3.1067e-08,8.19414e-08,8.19414e-05
3.1157e-08,8.23322e-08,8.23322e-05
3.1247e-08,8.27085e-08,8.27085e-05
3.1337e-08,8.30626e-08,8.30626e-05
3.1427e-08,8.3394e-08,8.3394e-05
3.1517e-08,8.370160000000001e-08,8.37016e-05
3.1607e-08,8.39851e-08,8.39851e-05
3.1697e-08,8.43606e-08,8.43606e-05
3.1787e-08,8.4909e-08,8.4909e-05
3.1877e-08,8.554780000000001e-08,8.55478e-05
3.1967e-08,8.616e-08,8.616e-05
3.2057e-08,8.67332e-08,8.67332e-05
3.2147e-08,8.72687e-08,8.72687e-05
3.2237e-08,8.77686e-08,8.77686e-05
3.2327e-08,8.82317e-08,8.82317e-05
3.2417e-08,8.866e-08,8.866e-05
3.2507e-08,8.905710000000001e-08,8.90571e-05
3.2597e-08,8.961910000000001e-08,8.96191e-05
3.2687e-08,9.02519e-08,9.02519e-05
3.2777e-08,9.0858e-08,9.0858e-05
3.2867e-08,9.142930000000001e-08,9.14293e-05
3.2957e-08,9.196190000000001e-08,9.19619e-05
3.3047e-08,9.24546e-08,9.24546e-05
3.3137e-08,9.291060000000001e-08,9.29106e-05
3.3227e-08,9.333500000000001e-08,9.3335e-05
3.3317e-08,9.373269999999999e-08,9.37327e-05
3.3407e-08,9.41076e-08,9.41076e-05
3.3497e-08,9.44619e-08,9.44619e-05
3.3587e-08,9.47974e-08,9.47974e-05
3.3677e-08,9.51158e-08,9.51158e-05
3.3767e-08,9.54182e-08,9.54182e-05
3.38569e-08,9.57061e-08,9.57061e-05
3.3947e-08,9.598080000000001e-08,9.59808e-05
3.4037e-08,9.62435e-08,9.62435e-05
3.4127e-08,9.64955e-08,9.64955e-05
3.4217e-08,9.67379e-08,9.67379e-05
3.4307e-08,9.69713e-08,9.69713e-05
3.4397e-08,9.71966e-08,9.71966e-05
3.4487e-08,9.74144e-08,9.74144e-05
3.4577e-08,9.78888e-08,9.78888e-05
3.4667e-08,9.79504e-08,9.79504e-05
3.4757e-08,9.80797e-08,9.80797e-05
3.4847e-08,9.82503e-08,9.82503e-05
3.4937e-08,9.84298e-08,9.84298e-05
3.5027e-08,9.86107e-08,9.86107e-05
3.5117e-08,9.87904e-08,9.87904e-05
3.5207e-08,9.896820000000001e-08,9.89682e-05
3.5297e-08,9.91437e-08,9.91437e-05
3.5387e-08,9.93165e-08,9.93165e-05
3.54769e-08,9.94869e-08,9.94869e-05
3.5567e-08,9.965479999999999e-08,9.96548e-05
3.5657e-08,9.982040000000001e-08,9.98204e-05
3.5747e-08,9.998379999999999e-08,9.99838e-05
3.58369e-08,1.00145e-07,0.000100145
3.59269e-08,1.00305e-07,0.000100305
3.6017e-08,1.00462e-07,0.000100462
3.6107e-08,1.0061800000000001e-07,0.000100618
3.61969e-08,1.0077200000000001e-07,0.000100772
3.62869e-08,1.00925e-07,0.000100925
3.6377e-08,1.01077e-07,0.000101077
3.6467e-08,1.01227e-07,0.000101227
3.6557e-08,1.0137600000000001e-07,0.000101376
3.6647e-08,1.01524e-07,0.000101524
3.6737e-08,1.01671e-07,0.000101671
3.6827e-08,1.01817e-07,0.000101817
3.6917e-08,1.01961e-07,0.000101961
3.7007e-08,1.02104e-07,0.000102104
3.7097e-08,1.02246e-07,0.000102246
3.7187e-08,1.02388e-07,0.000102388
3.7277e-08,1.02528e-07,0.000102528
3.7367e-08,1.02667e-07,0.000102667
3.7457e-08,1.02806e-07,0.000102806
3.7547e-08,1.02943e-07,0.000102943
3.75695e-08,1.0297800000000001e-07,0.000102978
3.76032e-08,1.0302999999999999e-07,0.00010303
3.76538e-08,1.02906e-07,0.000102906
3.77298e-08,1.03206e-07,0.000103206
3.78198e-08,1.0337400000000001e-07,0.000103374
3.79098e-08,1.0328100000000001e-07,0.000103281
3.79998e-08,1.0357200000000001e-07,0.000103572
3.80898e-08,1.03735e-07,0.000103735
3.81798e-08,1.03907e-07,0.000103907
3.82698e-08,1.0406799999999999e-07,0.000104068
3.83598e-08,1.0422e-07,0.00010422
3.84498e-08,1.04365e-07,0.000104365
3.85398e-08,1.0450500000000001e-07,0.000104505
3.86298e-08,1.04641e-07,0.000104641
3.87198e-08,1.04774e-07,0.000104774
3.88098e-08,1.04905e-07,0.000104905
3.88998e-08,1.05035e-07,0.000105035
3.89898e-08,1.05163e-07,0.000105163
3.90798e-08,1.0529100000000001e-07,0.000105291
3.91698e-08,1.05417e-07,0.000105417
3.92598e-08,1.0554400000000001e-07,0.000105544
3.93498e-08,1.0566999999999999e-07,0.00010567
3.94398e-08,1.05795e-07,0.000105795
3.95298e-08,1.0592100000000001e-07,0.000105921
3.96198e-08,1.0604500000000001e-07,0.000106045
3.97098e-08,1.0616999999999999e-07,0.00010617
3.97998e-08,1.06294e-07,0.000106294
3.98898e-08,1.06418e-07,0.000106418
3.99798e-08,1.06541e-07,0.000106541
4.00698e-08,1.06664e-07,0.000106664
4.01598e-08,1.06786e-07,0.000106786
4.02498e-08,1.0690800000000001e-07,0.000106908
4.03398e-08,1.0703e-07,0.00010703
4.04298e-08,1.0715199999999999e-07,0.000107152
4.05198e-08,1.07273e-07,0.000107273
4.06098e-08,1.07394e-07,0.000107394
4.06998e-08,1.0751500000000001e-07,0.000107515
4.07898e-08,1.0759700000000001e-07,0.000107597
4.08798e-08,1.07741e-07,0.000107741
4.09698e-08,1.0787e-07,0.00010787
4.10598e-08,1.07995e-07,0.000107995
4.11498e-08,1.08118e-07,0.000108118
4.12398e-08,1.0823900000000001e-07,0.000108239
4.13298e-08,1.0836e-07,0.00010836
4.14198e-08,1.0848e-07,0.00010848
4.15098e-08,1.0859899999999999e-07,0.000108599
4.15998e-08,1.08718e-07,0.000108718
4.16898e-08,1.0883700000000001e-07,0.000108837
4.17798e-08,1.0895600000000001e-07,0.000108956
4.18698e-08,1.09075e-07,0.000109075
4.19598e-08,1.09193e-07,0.000109193
4.20498e-08,1.0931e-07,0.00010931
4.21398e-08,1.0942799999999999e-07,0.000109428
4.22298e-08,1.0954499999999999e-07,0.000109545
4.23198e-08,1.0966199999999999e-07,0.000109662
4.24098e-08,1.0977899999999999e-07,0.000109779
4.24998e-08,1.0989600000000001e-07,0.000109896
4.25898e-08,1.1001300000000001e-07,0.000110013
4.26798e-08,1.10129e-07,0.000110129
4.27698e-08,1.1024600000000001e-07,0.000110246
4.28598e-08,1.10362e-07,0.000110362
4.29498e-08,1.1047899999999999e-07,0.000110479
4.30398e-08,1.1059499999999999e-07,0.000110595
4.31298e-08,1.10711e-07,0.000110711
4.32198e-08,1.10827e-07,0.000110827
4.33098e-08,1.10943e-07,0.000110943
4.33998e-08,1.1105800000000001e-07,0.000111058
4.34898e-08,1.11173e-07,0.000111173
4.35798e-08,1.11289e-07,0.000111289
4.36698e-08,1.1140400000000001e-07,0.000111404
4.37598e-08,1.11518e-07,0.000111518
4.38498e-08,1.11633e-07,0.000111633
4.39398e-08,1.11748e-07,0.000111748
4.40298e-08,1.11863e-07,0.000111863
4.41198e-08,1.1197800000000001e-07,0.000111978
4.42098e-08,1.12092e-07,0.000112092
4.42998e-08,1.1220700000000001e-07,0.000112207
4.43898e-08,1.12321e-07,0.000112321
4.44798e-08,1.12436e-07,0.000112436
4.45698e-08,1.12551e-07,0.000112551
4.46598e-08,1.12666e-07,0.000112666
4.47498e-08,1.1278100000000001e-07,0.000112781
4.48398e-08,1.1289499999999999e-07,0.000112895
4.49298e-08,1.1301e-07,0.00011301
4.50198e-08,1.13125e-07,0.000113125
4.51098e-08,1.13241e-07,0.000113241
4.51998e-08,1.13356e-07,0.000113356
4.52898e-08,1.13472e-07,0.000113472
4.53798e-08,1.13588e-07,0.000113588
4.54698e-08,1.13704e-07,0.000113704
4.55598e-08,1.1382000000000001e-07,0.00011382
